Freq (Hz)	ref(Pa^2 rms)	mic1(Pa^2 rms)	mic2(Pa^2 rms)
549.9999999999999990	0.2693803434710963	0.0002508874197726	0.0002759816628629
550.9999999999999990	0.2680135663279318	0.0006579109072542	0.0006778409079194
551.9999999999999990	0.2650398149741480	0.0002240415931052	0.0002475937743938
552.9999999999999990	0.2640187397327905	0.0005480021189556	0.0005932060376203
553.9999999999999990	0.2633510291925273	0.0002081740884602	0.0002110399967829
554.9999999999999990	0.2636153194304621	0.0004344714499216	0.0004742534414308
555.9999999999999990	0.2639738382452620	0.0003050093955036	0.0003245684611281
556.9999999999999990	0.2646162696806180	0.0002438007927801	0.0002533810356854
557.9999999999999990	0.2661857234343822	0.0002727369506524	0.0002898691184048
558.9999999999999990	0.2680981981464037	0.0002281150645846	0.0002508876279000
559.9999999999999990	0.2704762081616437	0.0001844741210273	0.0001939191227198
560.9999999999999990	0.2734471150333526	0.0002111926891866	0.0002196242444537
561.9999999999999990	0.2768094842198018	0.0001089393819662	0.0001268932220457
562.9999999999999990	0.2805606593057876	0.0003117543943371	0.0003356845329644
563.9999999999999990	0.2854387190960317	0.0002319508327975	0.0002537492034055
564.9999999999999990	0.2894818408942444	0.0003037677829451	0.0003328700976712
565.9999999999999990	0.2949162801688007	0.0002126838343602	0.0002445804647018
566.9999999999999990	0.3004999304031556	0.0002706407113144	0.0002912908447845
567.9999999999999990	0.3056127710986909	0.0002250189797946	0.0002535565627471
568.9999999999999990	0.3118030621427531	0.0001748731824684	0.0001883491613548
569.9999999999999990	0.3180518936504429	0.0001226954903391	0.0001348235512955
570.9999999999999990	0.3238912425702560	0.0001266237793425	0.0001381705521409
571.9999999999999990	0.3301566695212607	0.0000728729718374	0.0000805878558942
572.9999999999999990	0.3366382549062698	0.0001515240739320	0.0001620176917253
573.9999999999999990	0.3429976138700566	0.0000959429073918	0.0001007797765381
574.9999999999999990	0.3487296953889611	0.0002668027574517	0.0002776598427388
575.9999999999999990	0.3544038346366322	0.0002157749109496	0.0002346802505068
576.9999999999999990	0.3603487643994410	0.0001743090339416	0.0001955789443936
577.9999999999999990	0.3656737521034411	0.0001749850916321	0.0001867583174671
578.9999999999999990	0.3710804273786490	0.0000762573203097	0.0000887030219247
579.9999999999999990	0.3749515311133676	0.0001872277103125	0.0001951529467316
580.9999999999999990	0.3788059170047903	0.0003038460203233	0.0003461359756637
581.9999999999999990	0.3828139634372779	0.0002263413271412	0.0002579979464428
582.9999999999999990	0.3858174769703409	0.0003840461252268	0.0004056026956022
583.9999999999999990	0.3879104380128144	0.0006346635035001	0.0006850177428403
584.9999999999999990	0.3901266855862877	0.0002708481450826	0.0003020312162903
585.9999999999999990	0.3911608277672773	0.0007654164069033	0.0008200589204459
586.9999999999999990	0.3915043992819016	0.0003766570002007	0.0004121407208591
587.9999999999999990	0.3915659086206913	0.0004638770397694	0.0005129615567780
588.9999999999999990	0.3903413169397465	0.0003866213922525	0.0004350169915737
589.9999999999999990	0.3894210867982797	0.0003633965587911	0.0004144580949830
590.9999999999999990	0.3875512928509470	0.0002590512336843	0.0003008459419419
591.9999999999999990	0.3852094545001462	0.0003429873644502	0.0003860954692902
592.9999999999999990	0.3822287086150529	0.0003263741860343	0.0003632985652370
593.9999999999999990	0.3792516433033851	0.0002507421106753	0.0002940303109912
594.9999999999999990	0.3748554228526012	0.0002880582778406	0.0003119389838472
595.9999999999999990	0.3710716187421018	0.0002455691146976	0.0002781853679006
596.9999999999999990	0.3670933516406551	0.0003673515410129	0.0003917250564054
597.9999999999999990	0.3625035284549877	0.0004223301260924	0.0004572024091051
598.9999999999999990	0.3615921039293123	0.0005314997495947	0.0005626477205220
599.9999999999999990	0.3504662447364256	0.0007817543128132	0.0008184093238651
600.9999999999999990	0.3481041113282373	0.0004739366670030	0.0004975744054389
601.9999999999999990	0.3460785021744380	0.0004670298791554	0.0005028297508658
602.9999999999999990	0.3421870596558224	0.0003042019813118	0.0003148327960949
603.9999999999999990	0.3390557597722426	0.0002397512647605	0.0002606898513880
604.9999999999999990	0.3361943820952923	0.0002536179007410	0.0002771398760243
605.9999999999999990	0.3342642788427360	0.0001966666978310	0.0002038793956365
606.9999999999999990	0.3328262554825235	0.0002363636286753	0.0002660448081929
607.9999999999999990	0.3317649296394405	0.0003117963518950	0.0003468355369776
608.9999999999999990	0.3317086829940429	0.0002895030936354	0.0003367723451508
609.9999999999999990	0.3322005941661285	0.0003274707169930	0.0003538380285748
610.9999999999999990	0.3336163550410012	0.0002805809419088	0.0003169843506784
611.9999999999999990	0.3357588651177902	0.0002455949869531	0.0002600879670378
612.9999999999999990	0.3388178335503687	0.0001591410955100	0.0001780427374778
613.9999999999999990	0.3420336024553571	0.0002181696779011	0.0002308494727961
614.9999999999999990	0.3464094324615564	0.0001711557407922	0.0001892866676847
615.9999999999999990	0.3511064940486524	0.0003844864837270	0.0004130586429201
616.9999999999999990	0.3565115250466013	0.0001813188610035	0.0001985878933368
617.9999999999999990	0.3620796283162820	0.0004075280431037	0.0004444159679098
618.9999999999999990	0.3682309822620725	0.0002914925764980	0.0003392475654397
619.9999999999999990	0.3745355086676095	0.0005399133443815	0.0006237012820532
620.9999999999999990	0.3810104215188250	0.0002449782951096	0.0002756014833541
621.9999999999999990	0.3875985949789359	0.0007750661740434	0.0008763307635139
622.9999999999999990	0.3939182686260813	0.0003627918407405	0.0004083377358156
623.9999999999999990	0.4002939572902785	0.0011799235199042	0.0012997074269704
624.9999999999999990	0.4064209607459405	0.0005097574786959	0.0005522812928572
625.9999999999999990	0.4115557135474370	0.0012136088256811	0.0013295111259557
626.9999999999999990	0.4162456595162864	0.0005510325646064	0.0006144045058348
627.9999999999999990	0.4205798912691873	0.0008125516467804	0.0009032302950599
628.9999999999999990	0.4235942901399635	0.0009221862431767	0.0010117118111712
629.9999999999999990	0.4264825194147734	0.0008124865662337	0.0009149814673220
630.9999999999999990	0.4285701342639279	0.0009059561105624	0.0009557717318139
631.9999999999999990	0.4292643586997496	0.0011399263025953	0.0012346758105462
632.9999999999999990	0.4298196792470284	0.0008539018124613	0.0009180864177047
633.9999999999999990	0.4287597024818969	0.0009437116266710	0.0010334225693850
634.9999999999999990	0.4279548513014109	0.0008451955427639	0.0009133690355293
635.9999999999999990	0.4247712917912898	0.0007260170326087	0.0008214470311848
636.9999999999999990	0.4225160548001565	0.0007930572333240	0.0008589109270767
637.9999999999999990	0.4189526265829267	0.0005117171838626	0.0005626231339243
638.9999999999999990	0.4151656590207177	0.0007476256682668	0.0008149075490889
639.9999999999999990	0.4107200970523175	0.0004628990548209	0.0005135139364047
640.9999999999999990	0.4067014643001450	0.0006140863267663	0.0006718626274043
641.9999999999999990	0.4026727464440180	0.0005165287816870	0.0005601113072438
642.9999999999999990	0.3977453188118316	0.0004874090120180	0.0005168101967528
643.9999999999999990	0.3941809815906635	0.0005726045239888	0.0005948087103186
644.9999999999999990	0.3904198551751831	0.0006129661160422	0.0006427123798935
645.9999999999999990	0.3875211770690306	0.0005818646436326	0.0006025563586494
646.9999999999999990	0.3850067182133693	0.0008228840387106	0.0008622385675238
647.9999999999999990	0.3830205752025360	0.0008893037615161	0.0009256574174863
648.9999999999999990	0.3841847958159638	0.0007572466146812	0.0007986181409906
649.9999999999999990	0.3801561965321089	0.0006862982391368	0.0007213670798650
650.9999999999999990	0.3843460686947704	0.0006216452141352	0.0006507396469559
651.9999999999999990	0.3860221126233758	0.0005450838752417	0.0005853235884280
652.9999999999999990	0.3889593252351985	0.0004264335524169	0.0004528959962567
653.9999999999999990	0.3931279802652851	0.0003836506676048	0.0003912097166710
654.9999999999999990	0.3976319090325949	0.0004055886616683	0.0004123307009711
655.9999999999999990	0.4029116205444979	0.0003702461889180	0.0003928502696859
656.9999999999999990	0.4086062046009328	0.0005117558841607	0.0005347489698372
657.9999999999999990	0.4150328858459281	0.0004190511669196	0.0004122434324140
658.9999999999999990	0.4193465623308609	0.0002355036530827	0.0002527697221555
659.9999999999999990	0.4305785942636427	0.0004607969034218	0.0004765847840038
660.9999999999999990	0.4367974863763595	0.0004343631812681	0.0004582453506369
661.9999999999999990	0.4413510788678703	0.0005098558593846	0.0005361129867355
662.9999999999999990	0.4474055339337129	0.0004983482935837	0.0005230959197269
663.9999999999999990	0.4525667545317731	0.0005333963715254	0.0005711569676740
664.9999999999999990	0.4572282206067036	0.0004027313954281	0.0004323903701475
665.9999999999999990	0.4610694518020270	0.0004882880752780	0.0005128362567653
666.9999999999999990	0.4634491279606402	0.0003672165666487	0.0003987893001099
667.9999999999999990	0.4655919865082939	0.0003613941748463	0.0004022345230239
668.9999999999999990	0.4660088917968760	0.0004190372297660	0.0004614298046792
669.9999999999999990	0.4663270402156801	0.0003733267782540	0.0004219318965590
670.9999999999999990	0.4643980227149075	0.0004978235563390	0.0005448081291586
671.9999999999999990	0.4625455838000790	0.0004571798908947	0.0005057062316963
672.9999999999999990	0.4595173170785397	0.0005475740376032	0.0006148370248978
673.9999999999999990	0.4560782884863991	0.0005792705248783	0.0006379374037874
674.9999999999999990	0.4519745013451487	0.0003696809490578	0.0004184563295622
675.9999999999999990	0.4479542934130584	0.0003959884539752	0.0004277133046361
676.9999999999999990	0.4435208917733087	0.0004095874124708	0.0004518855350928
677.9999999999999990	0.4393721650875229	0.0002610331983717	0.0002873601104354
678.9999999999999990	0.4351132350607091	0.0003308091445361	0.0003612456144016
679.9999999999999990	0.4316796880469194	0.0002836123185173	0.0002986486451159
680.9999999999999990	0.4294642746393230	0.0003692355336302	0.0004059041247928
681.9999999999999990	0.4276838563563247	0.0003306547687566	0.0003365752899372
682.9999999999999990	0.4261272140874836	0.0003894795693961	0.0004244804741983
683.9999999999999990	0.4266848104610813	0.0003368512772788	0.0003459534387573
684.9999999999999990	0.4282036145912641	0.0004994631297959	0.0005420898055878
685.9999999999999990	0.4306515731064694	0.0005408286727171	0.0005610451852235
686.9999999999999990	0.4341645731355548	0.0006273935305516	0.0006695909616488
687.9999999999999990	0.4387031572567474	0.0008315251350187	0.0008652480309824
688.9999999999999990	0.4437133695242987	0.0004245998619496	0.0004436003649837
689.9999999999999990	0.4506362310767869	0.0007543936920005	0.0007936192838403
690.9999999999999990	0.4564038343265263	0.0003298038620527	0.0003421919693104
691.9999999999999990	0.4633815086175571	0.0004991649675992	0.0005161206379844
692.9999999999999990	0.4701307013311024	0.0002325364841269	0.0002480868340226
693.9999999999999990	0.4768103785767567	0.0003725990068337	0.0004039048068990
694.9999999999999990	0.4829729394461687	0.0002040744599599	0.0002249094269112
695.9999999999999990	0.4885923751762210	0.0002860967988924	0.0003056123279254
696.9999999999999990	0.4933624948531569	0.0003136606446371	0.0003458974143159
697.9999999999999990	0.4974214323467271	0.0003800542857754	0.0004211162635796
698.9999999999999990	0.4994019606395979	0.0004391253930965	0.0004859672510806
699.9999999999999990	0.5009659058205382	0.0004365357072792	0.0004634630270037
700.9999999999999990	0.5011545429817554	0.0006609128122399	0.0007372479354564
701.9999999999999990	0.5004118178165758	0.0005569321894688	0.0006104129000181
702.9999999999999990	0.4985490624462529	0.0007591923017589	0.0008527819044022
703.9999999999999990	0.4955050114500157	0.0006198635535746	0.0006985622075761
704.9999999999999990	0.4919319777577408	0.0011160563716550	0.0012239417130072
705.9999999999999990	0.4879521534603294	0.0007914068943521	0.0008732159381001
706.9999999999999990	0.4831504538178287	0.0007480406372909	0.0008569532980814
707.9999999999999990	0.4789972979623961	0.0005896100823102	0.0006338968782282
708.9999999999999990	0.4751898192038736	0.0006268846838675	0.0006887168123793
709.9999999999999990	0.4714524879827677	0.0005666315882142	0.0006146134065431
710.9999999999999990	0.4682174571003913	0.0004498099395854	0.0005266126319052
711.9999999999999990	0.4671680873378791	0.0003306413985003	0.0003551859279554
712.9999999999999990	0.4663154110049978	0.0003081954355741	0.0003435150058293
713.9999999999999990	0.4667810828254475	0.0002662311038980	0.0002962740328687
714.9999999999999990	0.4683756291660585	0.0003406206781481	0.0003666545079597
715.9999999999999990	0.4717581015053660	0.0003560015490795	0.0003902275413771
716.9999999999999990	0.4758567484988241	0.0005282863770334	0.0005815920595338
717.9999999999999990	0.4812863365041748	0.0004522044541152	0.0005033889950625
718.9999999999999990	0.4857729230719094	0.0007808955632558	0.0009013353966749
719.9999999999999990	0.4951442544283687	0.0004991897517840	0.0005487317512346
720.9999999999999990	0.5017689777730326	0.0007367160504596	0.0008348549751660
721.9999999999999990	0.5073875042891702	0.0005620931986547	0.0006253162496932
722.9999999999999990	0.5147470889843758	0.0004726557768410	0.0005270590730557
723.9999999999999990	0.5206346417469394	0.0005013870718775	0.0005587987834886
724.9999999999999990	0.5255666666679856	0.0003976570270181	0.0004485416223777
725.9999999999999990	0.5298760453521995	0.0003803101733219	0.0004169621896403
726.9999999999999990	0.5334310819031237	0.0006255512855521	0.0007068277787356
727.9999999999999990	0.5345239803776718	0.0004116862654091	0.0004468006035296
728.9999999999999990	0.5345844752835164	0.0006765606482097	0.0007706054580042
729.9999999999999990	0.5339396614170286	0.0005412107765814	0.0005966975536204
730.9999999999999990	0.5322311841590401	0.0006378793648434	0.0007073667285284
731.9999999999999990	0.5286267670065430	0.0008204113651762	0.0009064579666644
732.9999999999999990	0.5251868644691325	0.0003541685704421	0.0003919556225565
733.9999999999999990	0.5208883478941312	0.0007089514154278	0.0007982438987184
734.9999999999999990	0.5159564612502692	0.0003752319093897	0.0004169398862253
735.9999999999999990	0.5122834385112214	0.0005918612257921	0.0006728662570933
736.9999999999999990	0.5084960121677108	0.0001436583669477	0.0001664365007455
737.9999999999999990	0.5051161038313587	0.0003585160456416	0.0004137853552138
738.9999999999999990	0.5039863820338918	0.0002749053530822	0.0003039836608391
739.9999999999999990	0.5035670143670495	0.0004762632053257	0.0005354013473504
740.9999999999999990	0.5042827567179625	0.0004699896363158	0.0005248224621831
741.9999999999999990	0.5060687696740741	0.0005582581477180	0.0006105378201841
742.9999999999999990	0.5100700239493705	0.0005663457594245	0.0006206399152151
743.9999999999999990	0.5148707270946542	0.0005897788099403	0.0006408491615282
744.9999999999999990	0.5206339754798495	0.0005727429776548	0.0006298272385531
745.9999999999999990	0.5268963190901662	0.0007618449317796	0.0008130217991934
746.9999999999999990	0.5345100600485321	0.0007188052603793	0.0007890903227937
747.9999999999999990	0.5417072022868789	0.0006247662148938	0.0007058953025432
748.9999999999999990	0.5486821160986259	0.0005994530379768	0.0006550999668813
749.9999999999999990	0.5562598240504206	0.0006174257031072	0.0006716566037979
750.9999999999999990	0.5574041812844663	0.0005240776676229	0.0005835015279945
751.9999999999999990	0.5637762365924959	0.0005293358329062	0.0005888733865258
752.9999999999999990	0.5659655076422098	0.0006941250159083	0.0007335063711025
753.9999999999999990	0.5675774247229614	0.0007449775955756	0.0008034860808343
754.9999999999999990	0.5674794503938531	0.0006310000294076	0.0006825125425614
755.9999999999999990	0.5656436956330116	0.0006445685764843	0.0006906708172298
756.9999999999999990	0.5624381745494843	0.0006962041438491	0.0007332223328307
757.9999999999999990	0.5591245935888174	0.0007026096987760	0.0007707701546187
758.9999999999999990	0.5548605723918095	0.0005160560356168	0.0005391027138374
759.9999999999999990	0.5508943785202458	0.0008028556402417	0.0008636570543550
760.9999999999999990	0.5463057287568353	0.0007891445742235	0.0008399089742235
761.9999999999999990	0.5424794450888941	0.0009390613995516	0.0010066022991681
762.9999999999999990	0.5399321449635692	0.0009272559357562	0.0009940544964840
763.9999999999999990	0.5388524932376632	0.0012039582579207	0.0012977172755270
764.9999999999999990	0.5385941000334393	0.0011308602020894	0.0011991572819214
765.9999999999999990	0.5401880546542401	0.0011779845955130	0.0012365596539817
766.9999999999999990	0.5432219760879848	0.0010637088279005	0.0011177995596516
767.9999999999999990	0.5474635067009290	0.0012722753736778	0.0013523905330990
768.9999999999999990	0.5531259128056958	0.0010236428188319	0.0010904496232806
769.9999999999999990	0.5601994482499479	0.0010561043122897	0.0011475142085841
770.9999999999999990	0.5666281869732227	0.0012471039437041	0.0012801677534054
771.9999999999999990	0.5743547973091961	0.0011497275561721	0.0012068531753287
772.9999999999999990	0.5805976379252143	0.0012741469468708	0.0013450004931054
773.9999999999999990	0.5872292530875677	0.0012033773672136	0.0012528617139953
774.9999999999999990	0.5917566869312452	0.0013287448365822	0.0014105280522296
775.9999999999999990	0.5963003776775393	0.0011951943490298	0.0012496348017905
776.9999999999999990	0.5982384390660180	0.0010619106952029	0.0011140890226213
777.9999999999999990	0.5989537861813367	0.0009216244016347	0.0009633148120437
778.9999999999999990	0.5980296235292896	0.0007749902298545	0.0008002666541566
779.9999999999999990	0.5970903938743519	0.0007288646475331	0.0007379855725414
780.9999999999999990	0.5927443433211623	0.0009101935133960	0.0009532075347742
781.9999999999999990	0.5890729280053646	0.0007224335898808	0.0007596281895000
782.9999999999999990	0.5845123938034655	0.0007811068882811	0.0008280470170719
783.9999999999999990	0.5798543317051137	0.0006623372372001	0.0006746875597266
784.9999999999999990	0.5763425486149978	0.0008895674156819	0.0009092748852803
785.9999999999999990	0.5732881201156134	0.0006942932426799	0.0007115947085464
786.9999999999999990	0.5725681711154504	0.0008018008941888	0.0008113439218499
787.9999999999999990	0.5725288057400968	0.0007841309641954	0.0008125984499077
788.9999999999999990	0.5743007008662688	0.0008409418606741	0.0008463797110550
789.9999999999999990	0.5774140906190720	0.0008212587863596	0.0008249002204737
790.9999999999999990	0.5826993619932994	0.0008588457210128	0.0008555913338839
791.9999999999999990	0.5887608384510622	0.0007021389914877	0.0007066521309052
792.9999999999999990	0.5959243184392061	0.0007336165251794	0.0007384525994916
793.9999999999999990	0.6029685190371248	0.0009373059534170	0.0009705350617742
794.9999999999999990	0.6105251335002023	0.0010304460608763	0.0010257392270826
795.9999999999999990	0.6162657248618227	0.0013202062394600	0.0014051662679335
796.9999999999999990	0.6225055691564435	0.0009305570580580	0.0009630176679024
797.9999999999999990	0.6263944750542324	0.0014007721138678	0.0014859450449503
798.9999999999999990	0.6293502452379114	0.0011257802861457	0.0011721758512524
799.9999999999999990	0.6308426074897694	0.0013145825955551	0.0013936924510498
800.9999999999999990	0.6287667978251263	0.0012665923634378	0.0013234586507386
