Freq (Hz)	ref(Pa^2 rms)	mic1(Pa^2 rms)	mic2(Pa^2 rms)
549.9999999999999990	0.2625582446909987	0.0004882786476374	0.0005140348213845
550.9999999999999990	0.2619348229435910	0.0005795331782766	0.0005641143585522
551.9999999999999990	0.2604590043160478	0.0006459198013757	0.0006479497119774
552.9999999999999990	0.2594442668401265	0.0005472226036158	0.0005328644050061
553.9999999999999990	0.2586854470967641	0.0007093078403985	0.0007114366536214
554.9999999999999990	0.2586974645980256	0.0012449908241239	0.0012821351314869
555.9999999999999990	0.2590825256011381	0.0005404846715667	0.0005436183168794
556.9999999999999990	0.2599088307421831	0.0010527063965985	0.0010729944817541
557.9999999999999990	0.2614010012418507	0.0006644557633957	0.0007042630533606
558.9999999999999990	0.2632370434383081	0.0012817943254479	0.0013000390310424
559.9999999999999990	0.2659803004978298	0.0013733476012330	0.0014234790012969
560.9999999999999990	0.2683630720258369	0.0010503329888546	0.0010547946161627
561.9999999999999990	0.2719178484113260	0.0010965520033118	0.0011753079288169
562.9999999999999990	0.2757813297525199	0.0007559521464053	0.0007567943591570
563.9999999999999990	0.2800487755688403	0.0013996203256805	0.0014105684035943
564.9999999999999990	0.2842132602203108	0.0012786960062124	0.0013392923094249
565.9999999999999990	0.2895031354744720	0.0008409591067965	0.0008109044185073
566.9999999999999990	0.2947960161182370	0.0015037837760744	0.0014339083660003
567.9999999999999990	0.3005469051835125	0.0014886777580809	0.0015156787774404
568.9999999999999990	0.3060602740293951	0.0012344388693712	0.0011924001350944
569.9999999999999990	0.3121650290821220	0.0021706332076831	0.0022085631260092
570.9999999999999990	0.3182133304898196	0.0011025430265001	0.0011103203630424
571.9999999999999990	0.3239846226650213	0.0016726899120509	0.0017334679677620
572.9999999999999990	0.3305677112611766	0.0020636675228682	0.0021217500432994
573.9999999999999990	0.3365504464616761	0.0015837361013619	0.0017186890372308
574.9999999999999990	0.3424580970989144	0.0015227733133522	0.0014850673228050
575.9999999999999990	0.3484467335884444	0.0019552912621523	0.0020203554449421
576.9999999999999990	0.3535424115702767	0.0018371903161305	0.0019579245727005
577.9999999999999990	0.3591705287036707	0.0012901179759513	0.0013724003707008
578.9999999999999990	0.3642106370095735	0.0017897809857324	0.0018552687438847
579.9999999999999990	0.3684582300246536	0.0015031330456531	0.0015862601873766
580.9999999999999990	0.3719723830498098	0.0011579309238283	0.0012412222469800
581.9999999999999990	0.3760869359641875	0.0009334362728212	0.0008832205746889
582.9999999999999990	0.3786449128119592	0.0013160493380869	0.0012914034420090
583.9999999999999990	0.3808214708495022	0.0015111463750745	0.0014850210080651
584.9999999999999990	0.3832140026395017	0.0020396207630958	0.0020537358524831
585.9999999999999990	0.3838874829968803	0.0021326742213180	0.0022277576841017
586.9999999999999990	0.3847658242633382	0.0018935479153037	0.0019289968792302
587.9999999999999990	0.3843945553481921	0.0030826489037932	0.0031522212955074
588.9999999999999990	0.3835634336745104	0.0030728818725731	0.0033228819559876
589.9999999999999990	0.3823349946875624	0.0017936604014793	0.0019363369663009
590.9999999999999990	0.3805568571039241	0.0030375776033991	0.0030321923172143
591.9999999999999990	0.3784493808102676	0.0031566902212669	0.0033336688136262
592.9999999999999990	0.3750404041743238	0.0017285694738364	0.0019104475008670
593.9999999999999990	0.3722801150696259	0.0018073815348634	0.0017563664291897
594.9999999999999990	0.3683370815488102	0.0028447783081351	0.0029545447954992
595.9999999999999990	0.3644488643209731	0.0013562392726301	0.0015102047653834
596.9999999999999990	0.3605056965790154	0.0009062205100215	0.0008718675637577
597.9999999999999990	0.3563187022581839	0.0012735857049374	0.0012506398116968
598.9999999999999990	0.3518038983986175	0.0020323975978252	0.0021132778652365
599.9999999999999990	0.3423362019564354	0.0017864370137308	0.0018843904310748
600.9999999999999990	0.3463186379573446	0.0010959469676249	0.0011534636218761
601.9999999999999990	0.3401140759047238	0.0011971259186090	0.0012709382127736
602.9999999999999990	0.3361541793341605	0.0011102683619808	0.0011877578922997
603.9999999999999990	0.3329957280327377	0.0016822093527565	0.0018563668163765
604.9999999999999990	0.3302873682958040	0.0010244237880342	0.0011260814230531
605.9999999999999990	0.3284308633345923	0.0013923278134309	0.0014183534941460
606.9999999999999990	0.3268013935666255	0.0014460598434005	0.0015291021865388
607.9999999999999990	0.3259681348697351	0.0005939286777087	0.0005855102501585
608.9999999999999990	0.3259702313990825	0.0010022846043943	0.0009447354798984
609.9999999999999990	0.3266842841434480	0.0006402486435636	0.0005924094014780
610.9999999999999990	0.3273829726305780	0.0009914316718288	0.0009537992547063
611.9999999999999990	0.3300547470645128	0.0014681432707696	0.0014787322011948
612.9999999999999990	0.3324510632312865	0.0011600216881966	0.0012097452096405
613.9999999999999990	0.3359810421377958	0.0011594632245925	0.0011377766658707
614.9999999999999990	0.3401040916738336	0.0009259444796563	0.0008673055431829
615.9999999999999990	0.3450950536416030	0.0010433469786312	0.0010522090072579
616.9999999999999990	0.3501792039302318	0.0005971131314006	0.0005333433983031
617.9999999999999990	0.3558189065314356	0.0015283146368427	0.0014845530658170
618.9999999999999990	0.3612978016640068	0.0016708756626455	0.0016672678286900
619.9999999999999990	0.3683334807464530	0.0017069096681558	0.0017518361507216
620.9999999999999990	0.3745426994097070	0.0021655025161880	0.0021754926434398
621.9999999999999990	0.3806855006084772	0.0028149853896242	0.0029782610422136
622.9999999999999990	0.3874199427723718	0.0020860790486414	0.0021983669890346
623.9999999999999990	0.3926882492474264	0.0016144418657773	0.0016457587674856
624.9999999999999990	0.3989744648403847	0.0039691318971093	0.0041681506495287
625.9999999999999990	0.4040321223667995	0.0019958386391272	0.0021903800417651
626.9999999999999990	0.4091294009144737	0.0023872964768307	0.0023576964950831
627.9999999999999990	0.4126343292287108	0.0039379551523705	0.0041636697376939
628.9999999999999990	0.4166026461238445	0.0023616897531943	0.0025876049074717
629.9999999999999990	0.4190705160426358	0.0023523932274916	0.0024100817367727
630.9999999999999990	0.4210170795186438	0.0029366728822724	0.0031139021681927
631.9999999999999990	0.4218689170531267	0.0033272920925392	0.0035410924406813
632.9999999999999990	0.4223984933409845	0.0020130078082301	0.0020833671340411
633.9999999999999990	0.4209624268572615	0.0025290036817137	0.0026208264952783
634.9999999999999990	0.4200484211935809	0.0016934070098525	0.0017811120038309
635.9999999999999990	0.4177993980353900	0.0029397459279210	0.0030334822137146
636.9999999999999990	0.4149744642216081	0.0033225151160291	0.0035391394631310
637.9999999999999990	0.4116233001687277	0.0019510560285926	0.0020285047157795
638.9999999999999990	0.4075015831542222	0.0025425668234925	0.0026579906264759
639.9999999999999990	0.4035448814964079	0.0030323652789368	0.0031789927333049
640.9999999999999990	0.3999591443109022	0.0018393427891626	0.0019450069888122
641.9999999999999990	0.3952288261897426	0.0026611732793781	0.0026617544183402
642.9999999999999990	0.3909487309851107	0.0026990284043218	0.0028008449528101
643.9999999999999990	0.3872750972697294	0.0029055452442294	0.0030659647398839
644.9999999999999990	0.3835255011918723	0.0021897952231064	0.0022455011500213
645.9999999999999990	0.3810503898315512	0.0030474959010224	0.0032684885016553
646.9999999999999990	0.3779525756971891	0.0036629286022380	0.0039347942791977
647.9999999999999990	0.3766933987752983	0.0020579867741293	0.0022761542511835
648.9999999999999990	0.3759963693805392	0.0019337344866606	0.0021115900073179
649.9999999999999990	0.3768365763086524	0.0021961965325344	0.0024217656508810
650.9999999999999990	0.3774764486813170	0.0012203975190071	0.0013298277766540
651.9999999999999990	0.3792854355510495	0.0018517895613821	0.0019964193627224
652.9999999999999990	0.3824127021792908	0.0016956527469628	0.0018994945156905
653.9999999999999990	0.3859674282686014	0.0016580508322564	0.0018103209569672
654.9999999999999990	0.3908782787513591	0.0017153216647696	0.0019211637916241
655.9999999999999990	0.3959455655782838	0.0016141623665892	0.0018398309607586
656.9999999999999990	0.4017037430621780	0.0011928768697335	0.0013788988968010
657.9999999999999990	0.4078975144536295	0.0004974703780524	0.0006087455352774
658.9999999999999990	0.4145025105784537	0.0010120652281065	0.0010695631042956
659.9999999999999990	0.4164358958817685	0.0009641749797037	0.0010484157550721
660.9999999999999990	0.4295396597710582	0.0009361936251532	0.0010211590847915
661.9999999999999990	0.4340670264602616	0.0007730170356408	0.0007997457380159
662.9999999999999990	0.4394072584620501	0.0011352059499128	0.0010912656171525
663.9999999999999990	0.4449281641701943	0.0017091559064167	0.0017879370084767
664.9999999999999990	0.4492503034631837	0.0008957587392472	0.0009446551555649
665.9999999999999990	0.4529221652292595	0.0011816240966301	0.0011374800259924
666.9999999999999990	0.4555870452783694	0.0018250053786990	0.0018762117414802
667.9999999999999990	0.4575300385352160	0.0012923509636366	0.0013870328877611
668.9999999999999990	0.4577517255943698	0.0013506175580035	0.0013075796070263
669.9999999999999990	0.4581416005310375	0.0011257831018287	0.0011330735410717
670.9999999999999990	0.4569745049335843	0.0013754457294456	0.0013960533282011
671.9999999999999990	0.4544758196968600	0.0007810977026711	0.0007739622902146
672.9999999999999990	0.4515194261865487	0.0010815213964832	0.0010833527529725
673.9999999999999990	0.4481248098377701	0.0012498891366910	0.0012293767791337
674.9999999999999990	0.4445072606881926	0.0012780853268012	0.0012765844896155
675.9999999999999990	0.4401496507361989	0.0019166616572047	0.0019936738880510
676.9999999999999990	0.4356795994374060	0.0015462026986776	0.0015550188202053
677.9999999999999990	0.4316789843190871	0.0020515999791034	0.0020524124155555
678.9999999999999990	0.4279957320601307	0.0022705517813986	0.0023762919286831
679.9999999999999990	0.4244583612523646	0.0015085688642199	0.0015361460019576
680.9999999999999990	0.4222883983012135	0.0019084414533289	0.0019052743047586
681.9999999999999990	0.4201348264469756	0.0022667191918916	0.0023573998782139
682.9999999999999990	0.4188521987692416	0.0018858273794340	0.0018800110703406
683.9999999999999990	0.4195878376472199	0.0021671819969405	0.0021997512957623
684.9999999999999990	0.4212810393333662	0.0021216308493972	0.0021995205708691
685.9999999999999990	0.4230410315400371	0.0023489791973529	0.0024434447012033
686.9999999999999990	0.4266084168298102	0.0029878545538879	0.0031403601968282
687.9999999999999990	0.4311561390286714	0.0028435700266163	0.0029573622402171
688.9999999999999990	0.4363993238392867	0.0034053709038909	0.0036068086823960
689.9999999999999990	0.4424499803631079	0.0037004861920901	0.0040334130002757
690.9999999999999990	0.4488056601694798	0.0023564823407065	0.0025039107263103
691.9999999999999990	0.4555422760755435	0.0033390911934830	0.0034709391230738
692.9999999999999990	0.4618933099230634	0.0042860801187775	0.0046169005275782
693.9999999999999990	0.4689218805458061	0.0026948849390787	0.0028733330065000
694.9999999999999990	0.4747340456286196	0.0037428509189897	0.0038573724401385
695.9999999999999990	0.4805596091353255	0.0046503709349678	0.0050581493903650
696.9999999999999990	0.4847904863612003	0.0024475516482052	0.0026853262234690
697.9999999999999990	0.4883225821903941	0.0027411408022187	0.0027762230747888
698.9999999999999990	0.4914387761880345	0.0042524295650127	0.0045077725952071
699.9999999999999990	0.4923202967370601	0.0036778199642974	0.0039112338109218
700.9999999999999990	0.4927161831615748	0.0029578233931061	0.0031889592146429
701.9999999999999990	0.4917321587577762	0.0036085180412085	0.0037668944684719
702.9999999999999990	0.4900031851556322	0.0048539925974241	0.0051746118410923
703.9999999999999990	0.4870574139746042	0.0038149627389450	0.0041340315216505
704.9999999999999990	0.4835716819928825	0.0037098699297558	0.0039291194508819
705.9999999999999990	0.4795882761110537	0.0063147115060291	0.0067263863226755
706.9999999999999990	0.4749721732723463	0.0055327897192766	0.0060736438249904
707.9999999999999990	0.4714887828660375	0.0030796170332708	0.0034284286985873
708.9999999999999990	0.4668131187833686	0.0031513133815365	0.0034049995044013
709.9999999999999990	0.4633906849562832	0.0042136433712352	0.0047128476164875
710.9999999999999990	0.4608789563380959	0.0022471235842138	0.0025465637603011
711.9999999999999990	0.4592028313398930	0.0024527440534916	0.0026696633414719
712.9999999999999990	0.4583614848113597	0.0025708415203645	0.0028657522171188
713.9999999999999990	0.4592424709095367	0.0018384888188825	0.0020846350343745
714.9999999999999990	0.4604346693303508	0.0018519166671345	0.0019803115650461
715.9999999999999990	0.4641267320835620	0.0020203694867744	0.0021576734181767
716.9999999999999990	0.4678421230316320	0.0019751862232982	0.0021084159739906
717.9999999999999990	0.4730821060455433	0.0026137264737109	0.0028124770455920
718.9999999999999990	0.4794463566590100	0.0033629125489641	0.0036298976621710
719.9999999999999990	0.4877951857877628	0.0019393923338610	0.0021453782823471
720.9999999999999990	0.4909783807432702	0.0024587100946170	0.0026552195763071
721.9999999999999990	0.4994230391894548	0.0029068739871602	0.0031990672623220
722.9999999999999990	0.5053584326861795	0.0024861183350615	0.0027473814019052
723.9999999999999990	0.5117939356375748	0.0031901476692600	0.0034693709465439
724.9999999999999990	0.5170077889973435	0.0039317403635258	0.0044598002040224
725.9999999999999990	0.5213728086779044	0.0028568561846249	0.0031887466489337
726.9999999999999990	0.5240676970185671	0.0024048749460305	0.0027045697444128
727.9999999999999990	0.5258661258653803	0.0028047948531705	0.0032903185837928
728.9999999999999990	0.5259375211166267	0.0015564834480660	0.0017455852939248
729.9999999999999990	0.5251113303421043	0.0013251108121899	0.0014571384892289
730.9999999999999990	0.5230318432291605	0.0013033333108230	0.0013698503065811
731.9999999999999990	0.5198805392627512	0.0021272305638261	0.0021779408531661
732.9999999999999990	0.5163026968669102	0.0014250035511494	0.0014800966698270
733.9999999999999990	0.5119720414501094	0.0022465919322098	0.0022496168430803
734.9999999999999990	0.5076389396640911	0.0030507072209847	0.0030602079582434
735.9999999999999990	0.5037822399355827	0.0024290554919802	0.0025191682294997
736.9999999999999990	0.5001363858809836	0.0021791213303653	0.0023453995075628
737.9999999999999990	0.4970333541525645	0.0020689357200498	0.0022661640938550
738.9999999999999990	0.4956374150609847	0.0018008206319563	0.0019250847128051
739.9999999999999990	0.4952383859324755	0.0017701924031716	0.0019079949903356
740.9999999999999990	0.4957163054429353	0.0014097379443663	0.0015158308763014
741.9999999999999990	0.4977222061857990	0.0021083813747021	0.0021902227956238
742.9999999999999990	0.5019717765614111	0.0011291873848628	0.0012368400955148
743.9999999999999990	0.5060992912598846	0.0010189864656889	0.0011513457585098
744.9999999999999990	0.5120551121613577	0.0010573397031404	0.0011804964493657
745.9999999999999990	0.5186836620196853	0.0009179433197717	0.0009894576039495
746.9999999999999990	0.5253541101681726	0.0006787041537396	0.0007962804796739
747.9999999999999990	0.5329231054061780	0.0006836427545557	0.0007449612952258
748.9999999999999990	0.5394773650170974	0.0009761368122989	0.0010160520409149
749.9999999999999990	0.5471115708642197	0.0004279736292953	0.0004528678361923
750.9999999999999990	0.5489850504913848	0.0012100654327343	0.0011529938981814
751.9999999999999990	0.5543531146925615	0.0012143859649138	0.0012519669292629
752.9999999999999990	0.5570618723875123	0.0008133046696548	0.0008036945343372
753.9999999999999990	0.5580830526498752	0.0012870826336323	0.0012429776228727
754.9999999999999990	0.5579249170238775	0.0016487774329624	0.0016422450324805
755.9999999999999990	0.5563013323204846	0.0009574015682825	0.0009819513150856
756.9999999999999990	0.5531976822587862	0.0015770772468815	0.0014665258679887
757.9999999999999990	0.5503712410847623	0.0025068628886976	0.0025386521841306
758.9999999999999990	0.5456690528709254	0.0014171208241489	0.0013705774667547
759.9999999999999990	0.5415785158728641	0.0019626783035368	0.0018890062040089
760.9999999999999990	0.5375275752773098	0.0025848246327441	0.0025816569290997
761.9999999999999990	0.5338102783792833	0.0016525596847150	0.0016154930251741
762.9999999999999990	0.5311662056034957	0.0020858490655153	0.0020155203126660
763.9999999999999990	0.5297622903355971	0.0022309147444343	0.0022375456406406
764.9999999999999990	0.5297281991426439	0.0020623977399744	0.0020018531196737
765.9999999999999990	0.5314980529732253	0.0027281139311772	0.0026375966248971
766.9999999999999990	0.5343251725990530	0.0024667544799598	0.0025970571119972
767.9999999999999990	0.5390269695674583	0.0020745306905242	0.0020884007026865
768.9999999999999990	0.5441942880772960	0.0024648856051993	0.0025435866943984
769.9999999999999990	0.5507594867991440	0.0022209416676413	0.0023664861444780
770.9999999999999990	0.5573337099962520	0.0019342867966480	0.0020738728652612
771.9999999999999990	0.5649224297159326	0.0022987488000331	0.0024537702548326
772.9999999999999990	0.5711994104035465	0.0018885472661691	0.0020277571709831
773.9999999999999990	0.5778791072927386	0.0016421922242422	0.0017708398964671
774.9999999999999990	0.5820086972791781	0.0026493349925338	0.0028929083478759
775.9999999999999990	0.5864226737465146	0.0014988241119807	0.0016770570267784
776.9999999999999990	0.5885458838742228	0.0014372945548950	0.0015685653451823
777.9999999999999990	0.5893601632200138	0.0020938302661314	0.0022409840837209
778.9999999999999990	0.5882964717799400	0.0014906255515245	0.0016561724329937
779.9999999999999990	0.5867194695584933	0.0012131708872206	0.0013485091882145
780.9999999999999990	0.5836234352539663	0.0012000596631900	0.0013216081557438
781.9999999999999990	0.5790221404850273	0.0013883003672658	0.0015312206069962
782.9999999999999990	0.5746735942118142	0.0008590027662957	0.0010044422181579
783.9999999999999990	0.5707794986537731	0.0009282533753616	0.0009558257241413
784.9999999999999990	0.5670519004852158	0.0015730744613821	0.0016996470119687
785.9999999999999990	0.5646190342470517	0.0013358967886397	0.0015700644200390
786.9999999999999990	0.5633567746160946	0.0009262885291986	0.0010068729898844
787.9999999999999990	0.5629692711644046	0.0017665117261419	0.0018415127879455
788.9999999999999990	0.5651439058138108	0.0014221785362394	0.0016971095677594
789.9999999999999990	0.5682153081771281	0.0006361324476742	0.0007181074242049
790.9999999999999990	0.5733032352715467	0.0011142789871082	0.0011636233081764
791.9999999999999990	0.5790086801165480	0.0009116940304082	0.0010438575034769
792.9999999999999990	0.5858514825295922	0.0006833303283819	0.0006875323768975
793.9999999999999990	0.5932709980901004	0.0014915250386430	0.0015389482532903
794.9999999999999990	0.6004310059749111	0.0011768206607086	0.0013203109337419
795.9999999999999990	0.6067385007270019	0.0010581221590318	0.0011225720153574
796.9999999999999990	0.6121163010105738	0.0016273452291844	0.0016567753880771
797.9999999999999990	0.6163194837479843	0.0020334637322149	0.0022680441322575
798.9999999999999990	0.6191832875148062	0.0009119024117313	0.0010539689695198
799.9999999999999990	0.6204721535926954	0.0011873162039887	0.0012356905078737
800.9999999999999990	0.6191347055938616	0.0011010053701995	0.0012434957679697
