Freq (Hz)	ref(Pa^2 rms)	mic1(Pa^2 rms)	mic2(Pa^2 rms)
549.9999999999999990	0.2866153998453523	0.0028585631621753	0.0031780881390035
550.9999999999999990	0.2850677445012102	0.0048113806503679	0.0051314373136407
551.9999999999999990	0.2830946143969265	0.0037310198765343	0.0041428799004389
552.9999999999999990	0.2822521533210058	0.0047769483299554	0.0051466399141943
553.9999999999999990	0.2813935923513419	0.0033252053122545	0.0035301663667974
554.9999999999999990	0.2814484261851343	0.0053342856792496	0.0054874875429794
555.9999999999999990	0.2814246090502869	0.0062850653367326	0.0065887784074875
556.9999999999999990	0.2825494030840704	0.0036713475448253	0.0035774955023464
557.9999999999999990	0.2843728933391844	0.0043294344350664	0.0043352808274428
558.9999999999999990	0.2863238900636249	0.0036593022052882	0.0037317315786516
559.9999999999999990	0.2892873276191841	0.0026040494291895	0.0025307579006832
560.9999999999999990	0.2920855382945672	0.0039805365775050	0.0039824232621458
561.9999999999999990	0.2954156986811266	0.0033553970331554	0.0034001090159841
562.9999999999999990	0.2995383501023184	0.0022113074875804	0.0021482843283195
563.9999999999999990	0.3045800288057628	0.0017679762546982	0.0018384688886651
564.9999999999999990	0.3091351771586067	0.0019714059176978	0.0019346024888342
565.9999999999999990	0.3150867981898541	0.0017303533743383	0.0017465964902825
566.9999999999999990	0.3204744517446006	0.0035576910048035	0.0036699670924910
567.9999999999999990	0.3266369779292163	0.0021656789888336	0.0023224542062519
568.9999999999999990	0.3328564259580508	0.0038468568859979	0.0048343364671260
569.9999999999999990	0.3394031217435594	0.0067029307652473	0.0078959036849250
570.9999999999999990	0.3462387389409217	0.0033085902945251	0.0038528076245293
571.9999999999999990	0.3523967984111631	0.0054401142608420	0.0066286683211243
572.9999999999999990	0.3594899005933538	0.0109248030830119	0.0126795919099533
573.9999999999999990	0.3659882215479666	0.0050051375354361	0.0059783247282479
574.9999999999999990	0.3725741113423637	0.0074768340610265	0.0086928559711945
575.9999999999999990	0.3788113091980825	0.0093585590259519	0.0108721532249631
576.9999999999999990	0.3847213365530424	0.0055901759441184	0.0063991918238941
577.9999999999999990	0.3900226232225605	0.0044596537352786	0.0051523885947437
578.9999999999999990	0.3960461217060784	0.0068436912498551	0.0079983186903130
579.9999999999999990	0.4005949442936215	0.0028444125864624	0.0033675811074548
580.9999999999999990	0.4043989238292468	0.0024504235044393	0.0026695886674382
581.9999999999999990	0.4087484274140783	0.0032579446351723	0.0036830156258365
582.9999999999999990	0.4118907148084187	0.0004357162358239	0.0004638445251710
583.9999999999999990	0.4144785130456358	0.0042495190927769	0.0045583002076511
584.9999999999999990	0.4164105923590156	0.0039446436095224	0.0043285600347434
585.9999999999999990	0.4173283880508686	0.0017399149556217	0.0018508006566991
586.9999999999999990	0.4179289751163122	0.0061787684107804	0.0064775062848565
587.9999999999999990	0.4176040298937712	0.0038041275960999	0.0041462555560349
588.9999999999999990	0.4168548580094454	0.0037840134512920	0.0039465959520386
589.9999999999999990	0.4157470516819201	0.0055618228171773	0.0058196671990851
590.9999999999999990	0.4134561550240729	0.0042667793581568	0.0045901922749266
591.9999999999999990	0.4107173827100946	0.0034470942023168	0.0036403196491525
592.9999999999999990	0.4076317608880370	0.0045986628186404	0.0048757010608812
593.9999999999999990	0.4041265599158400	0.0043906686970520	0.0046935047906535
594.9999999999999990	0.3999169677436708	0.0025201859643747	0.0026725877215934
595.9999999999999990	0.3956911793494438	0.0050119973394328	0.0052104467793455
596.9999999999999990	0.3911164789828319	0.0030580508109138	0.0034115206363719
597.9999999999999990	0.3865108405644443	0.0040377370363497	0.0040514701340816
598.9999999999999990	0.3842020718328425	0.0100764565786669	0.0105624380864934
599.9999999999999990	0.3787820726261778	0.0058936260521490	0.0066490030851864
600.9999999999999990	0.3692521361239741	0.0045847087703118	0.0049915755295169
601.9999999999999990	0.3686707676728364	0.0102392601803632	0.0111900993272545
602.9999999999999990	0.3645289772619819	0.0123518309205677	0.0140992135132251
603.9999999999999990	0.3609529987937835	0.0138260395124706	0.0154698873056420
604.9999999999999990	0.3580696002386047	0.0256031222770749	0.0284488766153313
605.9999999999999990	0.3557652189455506	0.0178882794099203	0.0202336117720530
606.9999999999999990	0.3542763499963001	0.0196064873287398	0.0214546954582466
607.9999999999999990	0.3530360005503167	0.0277504085664024	0.0306938313379427
608.9999999999999990	0.3530641347278665	0.0163342378453478	0.0178521457371967
609.9999999999999990	0.3535570061439365	0.0250169173667510	0.0263469561676768
610.9999999999999990	0.3549040997617879	0.0180562169538564	0.0196694785534409
611.9999999999999990	0.3574425582590226	0.0049352212074060	0.0051460802379126
612.9999999999999990	0.3602409427140593	0.0069522207780659	0.0073285983580934
613.9999999999999990	0.3637163232881389	0.0025354528479246	0.0028645362264168
614.9999999999999990	0.3682760518933507	0.0037025777389393	0.0037848312399612
615.9999999999999990	0.3740780156324467	0.0011727836571629	0.0013312619962075
616.9999999999999990	0.3793733623406856	0.0034588845809891	0.0035582507433033
617.9999999999999990	0.3854634173235849	0.0056778355237202	0.0062412334280915
618.9999999999999990	0.3915224663679563	0.0040615901194260	0.0043164532180335
619.9999999999999990	0.3984673190644640	0.0078141499541244	0.0082324485763170
620.9999999999999990	0.4056436977973992	0.0064396375670549	0.0069980165658224
621.9999999999999990	0.4127641956869653	0.0046372705100189	0.0049229997257159
622.9999999999999990	0.4193633074292883	0.0076804602151802	0.0081840326564811
623.9999999999999990	0.4259374358331546	0.0057272230646209	0.0061868847739058
624.9999999999999990	0.4322054159811232	0.0021932251758978	0.0021906112021332
625.9999999999999990	0.4375671330700582	0.0022219405158657	0.0023398585205678
626.9999999999999990	0.4429422913118081	0.0026078517174916	0.0027959645416046
627.9999999999999990	0.4475529896105933	0.0021433891468353	0.0024179386302338
628.9999999999999990	0.4512920384417691	0.0049344861354237	0.0051678725069409
629.9999999999999990	0.4535770643743439	0.0107498652256310	0.0118144521064202
630.9999999999999990	0.4557059064352632	0.0044414998204857	0.0048689024870844
631.9999999999999990	0.4571274546324581	0.0035489500668292	0.0036265121549837
632.9999999999999990	0.4573258134916283	0.0042260858669840	0.0046460229405382
633.9999999999999990	0.4555503602117424	0.0016454226714242	0.0017974399738081
634.9999999999999990	0.4549528228152603	0.0017025427797382	0.0017152985385577
635.9999999999999990	0.4521915440230501	0.0021956359023700	0.0022814070258362
636.9999999999999990	0.4494462455107380	0.0019594457841480	0.0020855244991508
637.9999999999999990	0.4453810709999533	0.0020704915693240	0.0020231891898578
638.9999999999999990	0.4410862170641756	0.0048477177830729	0.0049441415937043
639.9999999999999990	0.4369262379758944	0.0028145455244015	0.0031497219118148
640.9999999999999990	0.4322454677956604	0.0047588836499295	0.0049289998325678
641.9999999999999990	0.4276616214341888	0.0058439534452772	0.0060673354885334
642.9999999999999990	0.4229222284687082	0.0025997363245384	0.0027888836800027
643.9999999999999990	0.4185224513591420	0.0019896266083892	0.0021320480721068
644.9999999999999990	0.4146235270475940	0.0017895755334047	0.0018505483314778
645.9999999999999990	0.4115601111871345	0.0031363701899662	0.0033122296270950
646.9999999999999990	0.4085935308030096	0.0026338625625137	0.0029121252282990
647.9999999999999990	0.4071165290906036	0.0041805545558527	0.0046529166119444
648.9999999999999990	0.4064580280223814	0.0053230144802593	0.0057983369447168
649.9999999999999990	0.4074994568749860	0.0095233738770734	0.0107591476391740
650.9999999999999990	0.4072061849504068	0.0029294010020265	0.0033069351228696
651.9999999999999990	0.4096799101300671	0.0049004772765957	0.0054064039287587
652.9999999999999990	0.4127462497708570	0.0026742626763475	0.0030014366327812
653.9999999999999990	0.4172430832669092	0.0005094754506128	0.0005673867653255
654.9999999999999990	0.4216776110520503	0.0017836747347437	0.0018931364038661
655.9999999999999990	0.4274419301873570	0.0031032169352464	0.0036317605097951
656.9999999999999990	0.4336232417934459	0.0037751923541276	0.0041203586878452
657.9999999999999990	0.4409484582773427	0.0051847514089189	0.0058276217176033
658.9999999999999990	0.4494797934806212	0.0053631807484124	0.0058810568400541
659.9999999999999990	0.4494395850453030	0.0079504534161314	0.0087657845354712
660.9999999999999990	0.4622633932875037	0.0044631024693871	0.0049480795738863
661.9999999999999990	0.4688348492433332	0.0050151848212705	0.0054176004184092
662.9999999999999990	0.4748627316263067	0.0032880143511989	0.0036916936293705
663.9999999999999990	0.4804753789300865	0.0015113912447298	0.0015809389675783
664.9999999999999990	0.4854201057563235	0.0027813093105657	0.0028632129408079
665.9999999999999990	0.4890757182207074	0.0014797724969240	0.0015728217657927
666.9999999999999990	0.4925203310611199	0.0021184245704667	0.0020457182083972
667.9999999999999990	0.4940176227931589	0.0060250859592042	0.0060447523664391
668.9999999999999990	0.4943399147270786	0.0038820404108530	0.0038455258050781
669.9999999999999990	0.4948805276036327	0.0067553097876399	0.0065685163314773
670.9999999999999990	0.4930596088170964	0.0077607651405615	0.0082104105440037
671.9999999999999990	0.4906627319176270	0.0049998667924278	0.0051713686130451
672.9999999999999990	0.4879986028234314	0.0060646615182944	0.0062535678395404
673.9999999999999990	0.4840002427432467	0.0022517256125694	0.0023713211917474
674.9999999999999990	0.4791784537441475	0.0018624975564353	0.0019603296273403
675.9999999999999990	0.4749140417848518	0.0015954625208032	0.0015618123644951
676.9999999999999990	0.4702265138828419	0.0014192210092038	0.0014827176701962
677.9999999999999990	0.4653200133932692	0.0019580385825553	0.0020597543810303
678.9999999999999990	0.4613547439767000	0.0048262044199156	0.0051159405728230
679.9999999999999990	0.4576848556942344	0.0046123464884524	0.0049152334574200
680.9999999999999990	0.4549939575168486	0.0109980156610934	0.0114301600484418
681.9999999999999990	0.4529483665895408	0.0132492811739266	0.0141718426877310
682.9999999999999990	0.4517741440420642	0.0086403452844570	0.0090636724904283
683.9999999999999990	0.4523348863266204	0.0095963593688612	0.0094844989397217
684.9999999999999990	0.4532018797353044	0.0088418955155505	0.0090359592127141
685.9999999999999990	0.4563978995754386	0.0042259427128218	0.0043948708086867
686.9999999999999990	0.4596892404733105	0.0068905862152038	0.0070110167765025
687.9999999999999990	0.4646221139238110	0.0111573707417332	0.0115642882238927
688.9999999999999990	0.4700900318069361	0.0098180967124047	0.0103457199616488
689.9999999999999990	0.4764901880227939	0.0065550453926189	0.0066567838565538
690.9999999999999990	0.4838360174232378	0.0052630361779531	0.0052599719199347
691.9999999999999990	0.4909664259333656	0.0030840532982911	0.0031011393567572
692.9999999999999990	0.4980731166252316	0.0029929149580819	0.0028731772425759
693.9999999999999990	0.5055626145977974	0.0053642270300441	0.0053906380472419
694.9999999999999990	0.5112224849336913	0.0030482132899534	0.0032845587650607
695.9999999999999990	0.5177897521658796	0.0039737418010610	0.0038400131772437
696.9999999999999990	0.5231097500819724	0.0048928996851778	0.0049814416392156
697.9999999999999990	0.5268106547981276	0.0031074249832969	0.0032984147402677
698.9999999999999990	0.5295623741078505	0.0016792664078443	0.0016486383166663
699.9999999999999990	0.5301280772542085	0.0032614348406094	0.0031965283740441
700.9999999999999990	0.5311279073619490	0.0037178771341192	0.0038880779930315
701.9999999999999990	0.5298625561925820	0.0023326935488628	0.0024841578094170
702.9999999999999990	0.5281819141381607	0.0043979953307989	0.0043399795591552
703.9999999999999990	0.5245953504324520	0.0033287939228642	0.0032498816151353
704.9999999999999990	0.5205900394099692	0.0033325955417963	0.0034702942703921
705.9999999999999990	0.5166483189462842	0.0030459207271045	0.0032637901581848
706.9999999999999990	0.5115581067845885	0.0030980335640153	0.0029874650487160
707.9999999999999990	0.5070477826224690	0.0047978301178301	0.0049103119715891
708.9999999999999990	0.5028269802839204	0.0026757854687089	0.0027233173996196
709.9999999999999990	0.4986013067683134	0.0020615577200931	0.0022247665089647
710.9999999999999990	0.4954701931942687	0.0014940718759542	0.0017376633818494
711.9999999999999990	0.4942466251560512	0.0011738643337244	0.0012365987054671
712.9999999999999990	0.4933229090516474	0.0014904738441127	0.0015952901094826
713.9999999999999990	0.4934930801467416	0.0020570283389547	0.0021938293106435
714.9999999999999990	0.4957877449978224	0.0006703795021639	0.0007185978790043
715.9999999999999990	0.4989158076361797	0.0016744992113965	0.0015994116083208
716.9999999999999990	0.5030316688879978	0.0033518733832747	0.0035706442198296
717.9999999999999990	0.5087427648663522	0.0020188451107824	0.0021621920007071
718.9999999999999990	0.5164938222727220	0.0036530839033296	0.0038582045969251
719.9999999999999990	0.5225664263591945	0.0033251417341605	0.0035543877640959
720.9999999999999990	0.5279189180616471	0.0033624038442792	0.0035589734255281
721.9999999999999990	0.5368750093828077	0.0038208695720679	0.0041919242660498
722.9999999999999990	0.5444495278385423	0.0023033912866143	0.0023631784519976
723.9999999999999990	0.5504185611962062	0.0037513603935742	0.0038026899946611
724.9999999999999990	0.5560041854395686	0.0019292185125292	0.0020230772573704
725.9999999999999990	0.5607415059968125	0.0023167810356010	0.0022548084903548
726.9999999999999990	0.5640583253283606	0.0035460474488510	0.0036185859096253
727.9999999999999990	0.5655762428642179	0.0015157975966762	0.0016424295635793
728.9999999999999990	0.5656820744812630	0.0027871232292006	0.0028272003653372
729.9999999999999990	0.5646923775370329	0.0018493530711785	0.0020171086249688
730.9999999999999990	0.5621318812326682	0.0021537922709886	0.0022978106290605
731.9999999999999990	0.5591276101080191	0.0010006651426030	0.0010427665346392
732.9999999999999990	0.5545495470667616	0.0019279439449594	0.0019214529652350
733.9999999999999990	0.5503007627873980	0.0016086568787943	0.0015879045069346
734.9999999999999990	0.5458791449264698	0.0021234791810885	0.0021060978160947
735.9999999999999990	0.5411152320453010	0.0029934671069764	0.0030792366535868
736.9999999999999990	0.5370999477091766	0.0027387487529129	0.0029033558251379
737.9999999999999990	0.5339567274601380	0.0021798415138717	0.0023203248659839
738.9999999999999990	0.5322940193669053	0.0021496538648923	0.0022483101667831
739.9999999999999990	0.5317187029751208	0.0023047696655964	0.0024837828649542
740.9999999999999990	0.5323974286756223	0.0015423902182125	0.0016763045146444
741.9999999999999990	0.5344179487457498	0.0022505624726601	0.0023374240022447
742.9999999999999990	0.5383611013212978	0.0021786296069188	0.0022681776996976
743.9999999999999990	0.5439251460912686	0.0023033553256615	0.0024133138918653
744.9999999999999990	0.5499144313750329	0.0022985730746835	0.0023905656823329
745.9999999999999990	0.5565713595151035	0.0012784649601707	0.0014279603152004
746.9999999999999990	0.5642484572463315	0.0012431726250568	0.0013592673954532
747.9999999999999990	0.5718630829387393	0.0012447200223746	0.0013721147986099
748.9999999999999990	0.5791164453864059	0.0006601138472359	0.0006877036376315
749.9999999999999990	0.5875774130831942	0.0010490987025394	0.0011113736095515
750.9999999999999990	0.5896763549666397	0.0011832713141004	0.0011570245378374
751.9999999999999990	0.5948157357198923	0.0014659746607394	0.0015289093838636
752.9999999999999990	0.5985023784736464	0.0012131230993819	0.0011856386096368
753.9999999999999990	0.5991264729444368	0.0025468878340836	0.0025141391221329
754.9999999999999990	0.5994898414020963	0.0009939331599127	0.0009642689709505
755.9999999999999990	0.5969572453803870	0.0026684391298076	0.0026373779163864
756.9999999999999990	0.5939709916463376	0.0008902138431756	0.0008724078133713
757.9999999999999990	0.5909862098351284	0.0023106509832746	0.0022404632348836
758.9999999999999990	0.5857698961374785	0.0020256068947562	0.0020213760871033
759.9999999999999990	0.5810057626864522	0.0025439143527236	0.0025064119844568
760.9999999999999990	0.5766294151215805	0.0020696976530983	0.0020388994665502
761.9999999999999990	0.5727522695782947	0.0019896459898418	0.0019292986995083
762.9999999999999990	0.5695588503255744	0.0029747414407386	0.0029089747057013
763.9999999999999990	0.5680778726526380	0.0017144218356546	0.0016917433341254
764.9999999999999990	0.5681765070880285	0.0035152595486000	0.0033427721723120
765.9999999999999990	0.5692503366390278	0.0023073229760567	0.0022640214984915
766.9999999999999990	0.5727275814079954	0.0041820243863046	0.0041766010428496
767.9999999999999990	0.5777588487700771	0.0027946367767407	0.0028666833045430
768.9999999999999990	0.5833564831673866	0.0037182817271411	0.0036696711639503
769.9999999999999990	0.5904950577097884	0.0041384429864669	0.0042972884595502
770.9999999999999990	0.5977763095192028	0.0050151058706340	0.0052069947731382
771.9999999999999990	0.6056370573386514	0.0045488250236126	0.0047146711013824
772.9999999999999990	0.6126263360767590	0.0035851297094016	0.0036674947184480
773.9999999999999990	0.6194605036851722	0.0045379033622812	0.0047933918040537
774.9999999999999990	0.6245302583590839	0.0036375145427558	0.0038270978267659
775.9999999999999990	0.6284790131984852	0.0052403909610748	0.0055902761449669
776.9999999999999990	0.6313836951097450	0.0023130906152363	0.0024060010522167
777.9999999999999990	0.6320862397496775	0.0060143330353473	0.0064290109921293
778.9999999999999990	0.6311337833727062	0.0034581526165086	0.0037021820683867
779.9999999999999990	0.6294063531605639	0.0089650764477984	0.0094351680817066
780.9999999999999990	0.6243575422729541	0.0037142005880185	0.0040495748720610
781.9999999999999990	0.6202863957958866	0.0076155561779063	0.0082579389667775
782.9999999999999990	0.6159842462183367	0.0025517350317680	0.0028238640834710
783.9999999999999990	0.6114306742313069	0.0033900219107347	0.0035481085230978
784.9999999999999990	0.6071872667117930	0.0021561890709201	0.0023711053366789
785.9999999999999990	0.6043231805712990	0.0022337975163567	0.0022568912240704
786.9999999999999990	0.6030770840149406	0.0037217260593674	0.0039701688606184
787.9999999999999990	0.6027169907251865	0.0022134256910397	0.0023371720143235
788.9999999999999990	0.6053851522882173	0.0035832647535839	0.0037230132714139
789.9999999999999990	0.6087419023165304	0.0025140666722732	0.0026566701429850
790.9999999999999990	0.6131726606694872	0.0022654925289391	0.0022418687653279
791.9999999999999990	0.6201714267581672	0.0028697231502608	0.0030620986373725
792.9999999999999990	0.6274926932023422	0.0026753454563080	0.0027099597230031
793.9999999999999990	0.6353507608943422	0.0042567780483362	0.0044537573847803
794.9999999999999990	0.6429278833012340	0.0023078466893588	0.0023458105762231
795.9999999999999990	0.6498186228932809	0.0026366348886198	0.0026855141339967
796.9999999999999990	0.6558832796299310	0.0055908204115696	0.0057301607858742
797.9999999999999990	0.6600835909674242	0.0029664174823609	0.0030678754643972
798.9999999999999990	0.6628738002796157	0.0032649845620647	0.0034324114273132
799.9999999999999990	0.6642371071846340	0.0025069697873888	0.0025376605840423
800.9999999999999990	0.6631078050575355	0.0029883313145109	0.0030141799613958
