Freq (Hz)	ref(Pa^2 rms)	mic1(Pa^2 rms)	mic2(Pa^2 rms)
549.9999999999999990	0.2339449636599783	0.0009666073451172	0.0008940878048831
550.9999999999999990	0.2333146599545716	0.0010898018440567	0.0009581613462922
551.9999999999999990	0.2317553753895189	0.0013128631837442	0.0011745762428775
552.9999999999999990	0.2309014900078897	0.0017587544259154	0.0016219319113811
553.9999999999999990	0.2301389645753238	0.0015439315832314	0.0014249787522648
554.9999999999999990	0.2303070025179831	0.0011905839106330	0.0010997087427653
555.9999999999999990	0.2305966095103660	0.0010464200508734	0.0009220217814191
556.9999999999999990	0.2316268646228697	0.0015698173299951	0.0014086788149026
557.9999999999999990	0.2328896868648832	0.0016802904920793	0.0015121566265290
558.9999999999999990	0.2344823798462616	0.0006260504682454	0.0005952155981459
559.9999999999999990	0.2368567828756398	0.0014188915166402	0.0012398390346476
560.9999999999999990	0.2391783313307546	0.0008802049224631	0.0007706170164857
561.9999999999999990	0.2417827778402041	0.0016284824963734	0.0013976563172114
562.9999999999999990	0.2458594783562963	0.0018804959858580	0.0016751172042294
563.9999999999999990	0.2493594852039538	0.0011356508680393	0.0009932822031293
564.9999999999999990	0.2532542730002230	0.0022431540501288	0.0019596369957783
565.9999999999999990	0.2580595344710852	0.0019666797363603	0.0017905925417579
566.9999999999999990	0.2623681681380879	0.0014352247827290	0.0012789948477793
567.9999999999999990	0.2674499922922374	0.0026109607582605	0.0023314733516946
568.9999999999999990	0.2730734306852634	0.0012578061931840	0.0011552894458649
569.9999999999999990	0.2778684208258378	0.0019513002796522	0.0017209086040413
570.9999999999999990	0.2832296162523181	0.0023489497351444	0.0020457904978744
571.9999999999999990	0.2888578590076450	0.0021773582013725	0.0019608522797142
572.9999999999999990	0.2942372488177125	0.0029849356047564	0.0027021376219122
573.9999999999999990	0.2997780868785666	0.0019653719921809	0.0017933433916227
574.9999999999999990	0.3051389865814495	0.0022052169099632	0.0019784566210183
575.9999999999999990	0.3099686910242161	0.0021521644219905	0.0019917737691296
576.9999999999999990	0.3152893194835236	0.0030578787833203	0.0027228578450788
577.9999999999999990	0.3196580310883543	0.0026432504545309	0.0024193790345518
578.9999999999999990	0.3244462634560517	0.0030467159121926	0.0027158916961897
579.9999999999999990	0.3277404822352807	0.0041420244221493	0.0037251732707853
580.9999999999999990	0.3314916599049843	0.0034820547657497	0.0031745221420035
581.9999999999999990	0.3347571568242999	0.0027190242280493	0.0024799795462711
582.9999999999999990	0.3375187427031691	0.0037941042053892	0.0034061287351900
583.9999999999999990	0.3395803204235990	0.0032601069302986	0.0029857499272153
584.9999999999999990	0.3412722830512037	0.0038971760841553	0.0035395828828326
585.9999999999999990	0.3421342031903995	0.0049742245592956	0.0045786223054311
586.9999999999999990	0.3425069843184568	0.0024673377461605	0.0022955178087025
587.9999999999999990	0.3426281416454504	0.0037022039320937	0.0033088524331478
588.9999999999999990	0.3417459263065473	0.0040539470335398	0.0037804820828831
589.9999999999999990	0.3409687561870560	0.0015003239414492	0.0013691995935448
590.9999999999999990	0.3392805532512078	0.0044942229028105	0.0039692779370388
591.9999999999999990	0.3371488242698945	0.0026429557607020	0.0024644080271007
592.9999999999999990	0.3347211582496576	0.0022123394665272	0.0019224638731735
593.9999999999999990	0.3318523957573555	0.0034358782276185	0.0030638560957918
594.9999999999999990	0.3284652325647844	0.0035966367684006	0.0032138615083576
595.9999999999999990	0.3250985701963355	0.0029157542324349	0.0026519011211156
596.9999999999999990	0.3216603070953388	0.0036922110603352	0.0032471876010484
597.9999999999999990	0.3177434410387125	0.0027497949787028	0.0025726672001988
598.9999999999999990	0.3113190603211237	0.0032840755235517	0.0028779744931850
599.9999999999999990	0.3129690257130632	0.0045442830888489	0.0041689937351714
600.9999999999999990	0.3081614298771684	0.0018586063248900	0.0017118504098365
601.9999999999999990	0.3032483844145448	0.0033970228935769	0.0030325857765745
602.9999999999999990	0.3003219474390689	0.0024972445971514	0.0023641052960703
603.9999999999999990	0.2975961781323092	0.0018158026548858	0.0016332194017540
604.9999999999999990	0.2948111177070838	0.0025400955545933	0.0023460042699839
605.9999999999999990	0.2932707408325625	0.0019249412080682	0.0017656920251435
606.9999999999999990	0.2921711809274801	0.0030336605923164	0.0028389784441846
607.9999999999999990	0.2913496682117353	0.0013771986526914	0.0012141836401495
608.9999999999999990	0.2911775877668055	0.0026730061503484	0.0024614444492122
609.9999999999999990	0.2919360598442214	0.0011999007563477	0.0010726694853626
610.9999999999999990	0.2929940119492815	0.0021088252050410	0.0019193607312400
611.9999999999999990	0.2949527247816053	0.0012162467988514	0.0010164486995869
612.9999999999999990	0.2971819639741750	0.0018232504200201	0.0016508966702669
613.9999999999999990	0.3002892849748227	0.0012858110713887	0.0011484390878295
614.9999999999999990	0.3041063177183377	0.0024067512168904	0.0020908312886230
615.9999999999999990	0.3084601901839185	0.0011816055625553	0.0010630981161242
616.9999999999999990	0.3130290394053284	0.0026603132123800	0.0022689948955545
617.9999999999999990	0.3180417871218463	0.0024946173853733	0.0022272702700155
618.9999999999999990	0.3231086033428666	0.0024495435810267	0.0021444033408398
619.9999999999999990	0.3292101841152203	0.0030738360423180	0.0027182801044023
620.9999999999999990	0.3347637768085006	0.0038108874099063	0.0034159097751799
621.9999999999999990	0.3402621283096451	0.0032574824654499	0.0029251844771542
622.9999999999999990	0.3460624604116220	0.0031016390488703	0.0027197929041670
623.9999999999999990	0.3515124380952211	0.0052317814648690	0.0046978119397837
624.9999999999999990	0.3567168888309181	0.0036445550950477	0.0032961318521774
625.9999999999999990	0.3610080084686202	0.0034150698330842	0.0030311102132113
626.9999999999999990	0.3654382569678625	0.0049241766859805	0.0044144873849679
627.9999999999999990	0.3692518994334538	0.0042406331259137	0.0038249271402865
628.9999999999999990	0.3721475141878107	0.0051802639687478	0.0045647157397715
629.9999999999999990	0.3744625645468930	0.0063227335587229	0.0056435922063091
630.9999999999999990	0.3762772098370761	0.0054572894001107	0.0048310145450194
631.9999999999999990	0.3771415684908749	0.0063198816627853	0.0056169482926022
632.9999999999999990	0.3775783662411254	0.0063939110686746	0.0057894612482262
633.9999999999999990	0.3765027776298161	0.0075545485595578	0.0068320777823139
634.9999999999999990	0.3758325236763115	0.0058926143198528	0.0053049205277967
635.9999999999999990	0.3736455289053775	0.0062214214540696	0.0055814965802972
636.9999999999999990	0.3711975946279282	0.0057853893111015	0.0052641913288669
637.9999999999999990	0.3685719147521024	0.0046988211197020	0.0042613527205894
638.9999999999999990	0.3647346688279621	0.0056070631353476	0.0050555135675690
639.9999999999999990	0.3611116298493523	0.0055996257489368	0.0051020999611476
640.9999999999999990	0.3576447128539293	0.0053075148100444	0.0048429683702322
641.9999999999999990	0.3540274043313940	0.0051285381971868	0.0045887064440774
642.9999999999999990	0.3499978361199108	0.0065541320571925	0.0059508503407251
643.9999999999999990	0.3466936551356559	0.0046043897877836	0.0042045696501678
644.9999999999999990	0.3434035701422768	0.0052263622491989	0.0047090446363538
645.9999999999999990	0.3411861821613377	0.0059054853012505	0.0053899535648569
646.9999999999999990	0.3390396987370395	0.0052577536653569	0.0048098980462532
647.9999999999999990	0.3375920620606199	0.0050931979742091	0.0046765088059949
648.9999999999999990	0.3371887855734040	0.0057979266682397	0.0053041065009619
649.9999999999999990	0.3371518131681709	0.0035422040364660	0.0032736970189479
650.9999999999999990	0.3383458969112333	0.0043684997517655	0.0040042354765080
651.9999999999999990	0.3397831120247751	0.0033562551908910	0.0031359079414877
652.9999999999999990	0.3427965157622884	0.0028139042667499	0.0025235235099057
653.9999999999999990	0.3460655513575137	0.0027742213474911	0.0025570514177027
654.9999999999999990	0.3504580964307646	0.0027853588284023	0.0025061702958606
655.9999999999999990	0.3546520200432079	0.0020763169379121	0.0018836583329077
656.9999999999999990	0.3600342800932593	0.0028369900307485	0.0025196566334509
657.9999999999999990	0.3658019988559378	0.0030505456521166	0.0027586838726190
658.9999999999999990	0.3723456424064690	0.0034521443264418	0.0031019644561662
659.9999999999999990	0.3804391840412469	0.0040991816440699	0.0036009987583845
660.9999999999999990	0.3804379469140220	0.0045236484486014	0.0040632289636371
661.9999999999999990	0.3889189419057099	0.0040376830900346	0.0036470748595510
662.9999999999999990	0.3938640614997415	0.0044793184898182	0.0040436072909276
663.9999999999999990	0.3983494757180358	0.0043195402538129	0.0039568206181678
664.9999999999999990	0.4027127417625378	0.0040624907437564	0.0037509896592997
665.9999999999999990	0.4059635440477579	0.0032676889439681	0.0030406277991730
666.9999999999999990	0.4082953215885520	0.0038775618380313	0.0035163610753796
667.9999999999999990	0.4098014217445599	0.0051419320278095	0.0047317563391983
668.9999999999999990	0.4109103490958820	0.0038155307670716	0.0035079788375168
669.9999999999999990	0.4109352571640601	0.0035003101813199	0.0032586323746197
670.9999999999999990	0.4092892502244659	0.0043705934555340	0.0040353704750642
671.9999999999999990	0.4074444446715918	0.0030323523935580	0.0027878970187401
672.9999999999999990	0.4052211451882528	0.0028496906120919	0.0026396648642566
673.9999999999999990	0.4019037017338523	0.0033692383378372	0.0031559202468501
674.9999999999999990	0.3987935172171381	0.0022935656441929	0.0021253138877245
675.9999999999999990	0.3949223473661139	0.0030964032160466	0.0027983324525006
676.9999999999999990	0.3914364612471281	0.0038376521128463	0.0034847777049497
677.9999999999999990	0.3872522276539356	0.0037595074425126	0.0034232066782333
678.9999999999999990	0.3839359323924491	0.0041256078456931	0.0037095178906860
679.9999999999999990	0.3813535020420020	0.0042604982277234	0.0038839483363704
680.9999999999999990	0.3793917105095087	0.0039525857760617	0.0035602240176994
681.9999999999999990	0.3770402747586485	0.0042940254992636	0.0038306600355077
682.9999999999999990	0.3765477993369657	0.0044005737716894	0.0039463108472758
683.9999999999999990	0.3765598273268385	0.0041525918785132	0.0037259792064791
684.9999999999999990	0.3776775508967692	0.0045775556659491	0.0040506995230861
685.9999999999999990	0.3805668438865795	0.0052292238858139	0.0046880032483252
686.9999999999999990	0.3834730939761283	0.0042040385739779	0.0037643870588095
687.9999999999999990	0.3874509048060272	0.0039756882187648	0.0035562422232965
688.9999999999999990	0.3918637810263769	0.0033571564615199	0.0030376649551937
689.9999999999999990	0.3974991869202147	0.0033785623745360	0.0029737514558361
690.9999999999999990	0.4033672466145156	0.0045176834827583	0.0040588457921480
691.9999999999999990	0.4088035927405049	0.0039290068283022	0.0034909944759882
692.9999999999999990	0.4152662505281228	0.0056573992429223	0.0050207011695595
693.9999999999999990	0.4208010692181713	0.0055045300059370	0.0048752944291460
694.9999999999999990	0.4264943527758203	0.0050696854650172	0.0044520280015805
695.9999999999999990	0.4313934317260348	0.0061708329778419	0.0055024894346397
696.9999999999999990	0.4356825410301492	0.0059345961053037	0.0052824167584132
697.9999999999999990	0.4385580547222564	0.0062826627665158	0.0055780603481312
698.9999999999999990	0.4415953488306542	0.0085817115657197	0.0076705674969885
699.9999999999999990	0.4419069915043126	0.0074301898084665	0.0067134971610107
700.9999999999999990	0.4426231258004280	0.0076575821963412	0.0067769884203466
701.9999999999999990	0.4418533467798987	0.0122312541792512	0.0109624579411110
702.9999999999999990	0.4403117959298454	0.0085280747143410	0.0077237785090506
703.9999999999999990	0.4375635442270360	0.0084588606649284	0.0076079030561390
704.9999999999999990	0.4350056105445865	0.0102182986407187	0.0092645519062854
705.9999999999999990	0.4307109294405615	0.0071584747246794	0.0064417595736112
706.9999999999999990	0.4271858834503298	0.0092633948609532	0.0083657011204921
707.9999999999999990	0.4236586067697396	0.0088412968583029	0.0080879898950941
708.9999999999999990	0.4200200469006155	0.0076185315312529	0.0068529029657989
709.9999999999999990	0.4168472253886638	0.0069210457588153	0.0062267134618908
710.9999999999999990	0.4147753377898594	0.0085441968117048	0.0077808563167028
711.9999999999999990	0.4136209825062130	0.0054749229198907	0.0050498929838538
712.9999999999999990	0.4123692215974085	0.0055481401550409	0.0049319139103188
713.9999999999999990	0.4130522824374617	0.0072865182852777	0.0066593129662057
714.9999999999999990	0.4149797117744522	0.0044986953335050	0.0041049274052362
715.9999999999999990	0.4172661766809739	0.0062870299968610	0.0057013159666680
716.9999999999999990	0.4210301025285772	0.0061146729250299	0.0056338480507350
717.9999999999999990	0.4260766634562630	0.0057677616134697	0.0052390079913953
718.9999999999999990	0.4305762650953007	0.0067181082904036	0.0061174393074152
719.9999999999999990	0.4401058144307569	0.0072412517836974	0.0065592049595825
720.9999999999999990	0.4421599380091035	0.0084310005838686	0.0076795380620590
721.9999999999999990	0.4492891403073910	0.0064773526516492	0.0057604783227467
722.9999999999999990	0.4554103699362126	0.0081298426890406	0.0073307986569567
723.9999999999999990	0.4604384905740834	0.0065279931988778	0.0060038555292822
724.9999999999999990	0.4649456127848042	0.0058045836293839	0.0051250602476911
725.9999999999999990	0.4692638170321337	0.0063057366752928	0.0057816191251091
726.9999999999999990	0.4715268045494697	0.0053988327817521	0.0050664826279081
727.9999999999999990	0.4732311276691178	0.0052904314883145	0.0048532004775360
728.9999999999999990	0.4732936610499429	0.0042699142090545	0.0039405068612650
729.9999999999999990	0.4725519176765873	0.0055877524200129	0.0050607258584443
730.9999999999999990	0.4706750418157922	0.0046889368954050	0.0043046019097185
731.9999999999999990	0.4682213369123817	0.0047072153939700	0.0043480302415167
732.9999999999999990	0.4648692050745046	0.0038129275228890	0.0035364190075318
733.9999999999999990	0.4607075368339264	0.0029666779368550	0.0027247770410115
734.9999999999999990	0.4576230556615519	0.0057075474480588	0.0052476460786246
735.9999999999999990	0.4540816173181913	0.0031390085247086	0.0028578608428041
736.9999999999999990	0.4508612668298859	0.0024406811122400	0.0022691938063415
737.9999999999999990	0.4480848911204698	0.0036854682940109	0.0033583527598342
738.9999999999999990	0.4467953993365318	0.0039322247524686	0.0035416791603956
739.9999999999999990	0.4466926761051043	0.0015385184781160	0.0015153563035659
740.9999999999999990	0.4471736008113985	0.0024343257043328	0.0022249937828658
741.9999999999999990	0.4483805826818914	0.0030200648523099	0.0026868652666327
742.9999999999999990	0.4524787093812258	0.0017771039363077	0.0016890672571010
743.9999999999999990	0.4567479382000091	0.0019236491544455	0.0017236075227932
744.9999999999999990	0.4615839125013345	0.0037259856776837	0.0032120465621158
745.9999999999999990	0.4676193950106355	0.0022611421994576	0.0020566955868183
746.9999999999999990	0.4732808242703596	0.0025045861964204	0.0021504992010925
747.9999999999999990	0.4802266886394209	0.0034918353082805	0.0029872874351069
748.9999999999999990	0.4858911826308505	0.0035622253695583	0.0031257778692215
749.9999999999999990	0.4923002399263979	0.0041345259109122	0.0035501202437817
750.9999999999999990	0.4959423645416196	0.0051433730625112	0.0044525571036094
751.9999999999999990	0.4993190590110674	0.0077978189591715	0.0069067853572260
752.9999999999999990	0.5023872343369143	0.0064406723726998	0.0057128009004065
753.9999999999999990	0.5029316972058899	0.0073704183171028	0.0066037064513386
754.9999999999999990	0.5030308243541455	0.0084126247369186	0.0075135234446238
755.9999999999999990	0.5013786612554733	0.0080890461499654	0.0072625709920429
756.9999999999999990	0.4990213784060115	0.0081367451522690	0.0073411579417266
757.9999999999999990	0.4961411609955281	0.0092937139960100	0.0084244076895672
758.9999999999999990	0.4923271421102746	0.0079282278328749	0.0071946851460454
759.9999999999999990	0.4888616583168577	0.0077755657527611	0.0070412909600263
760.9999999999999990	0.4852102573050602	0.0084651148041659	0.0075729917671636
761.9999999999999990	0.4817560235662784	0.0077350153264910	0.0069362707191952
762.9999999999999990	0.4793478001766494	0.0086716145454557	0.0078391257457409
763.9999999999999990	0.4786494494647059	0.0072222435016985	0.0065104023049278
764.9999999999999990	0.4784830203793069	0.0085357045145560	0.0077724068451831
765.9999999999999990	0.4799840803448258	0.0069710054209989	0.0063822791727928
766.9999999999999990	0.4828694603592908	0.0076117106345771	0.0069411690342030
767.9999999999999990	0.4863086190229737	0.0079940823795530	0.0073405834986094
768.9999999999999990	0.4913239772337661	0.0063478587110650	0.0058704754266248
769.9999999999999990	0.4972215440978179	0.0083215947331621	0.0075683275727343
770.9999999999999990	0.5035770945528489	0.0063627545963020	0.0058023918313934
771.9999999999999990	0.5096466629766846	0.0081301747100747	0.0073041540474820
772.9999999999999990	0.5158065705872590	0.0078724835291632	0.0070908462422943
773.9999999999999990	0.5219540925009450	0.0079543667156584	0.0072428752713629
774.9999999999999990	0.5256331493044977	0.0070175996105309	0.0063487934343970
775.9999999999999990	0.5293832645212586	0.0075588420661247	0.0067664349653925
776.9999999999999990	0.5314369008045737	0.0069008627314968	0.0061850946631225
777.9999999999999990	0.5321614395971471	0.0060167371661362	0.0053886472478788
778.9999999999999990	0.5311288341717562	0.0061170097291756	0.0054546304069538
779.9999999999999990	0.5308020165265159	0.0053096529948129	0.0047307177770456
780.9999999999999990	0.5267653370871059	0.0056773464536109	0.0050319022975083
781.9999999999999990	0.5232304635142032	0.0058128211775892	0.0051596258150375
782.9999999999999990	0.5193231700541754	0.0061601521624033	0.0054057961170411
783.9999999999999990	0.5156666067278100	0.0057847993149075	0.0050825068664588
784.9999999999999990	0.5130182822267380	0.0060046197728957	0.0052411605596736
785.9999999999999990	0.5101179082707918	0.0058243829453549	0.0051554886612448
786.9999999999999990	0.5092503872329038	0.0055062711348830	0.0048249588166942
787.9999999999999990	0.5096102405601772	0.0057596497297056	0.0050946048522274
788.9999999999999990	0.5110230500599295	0.0053148876086180	0.0046480164370481
789.9999999999999990	0.5138500380840367	0.0051470786615702	0.0044636914026823
790.9999999999999990	0.5185904467369309	0.0056039583399313	0.0048393642157476
791.9999999999999990	0.5235308454142685	0.0053017994513205	0.0045901963618267
792.9999999999999990	0.5299578692436748	0.0055414411110130	0.0048671195906917
793.9999999999999990	0.5367877873724570	0.0055600467389681	0.0048632500559246
794.9999999999999990	0.5430325453719200	0.0060150586819559	0.0053056141216785
795.9999999999999990	0.5482066611361496	0.0062693327806786	0.0055488753427403
796.9999999999999990	0.5536597031461448	0.0061055462362426	0.0054042072656879
797.9999999999999990	0.5571239973958356	0.0056541485836710	0.0049956805320836
798.9999999999999990	0.5597246865813080	0.0057083507051449	0.0050622764401883
799.9999999999999990	0.5604228230947876	0.0054995654875324	0.0048931637823637
800.9999999999999990	0.5597921488783137	0.0060604685441943	0.0053823029912970
