Freq (Hz)	ref(Pa^2 rms)	mic1(Pa^2 rms)	mic2(Pa^2 rms)
549.9999999999999990	0.2332267051443763	0.0003820709204115	0.0003529550625692
550.9999999999999990	0.2320333520622892	0.0011131255372632	0.0010123040292239
551.9999999999999990	0.2309751367842058	0.0009432883173507	0.0008693647930002
552.9999999999999990	0.2301346787107048	0.0009486367879810	0.0008562611082442
553.9999999999999990	0.2294384036361358	0.0007871437381565	0.0006994504698210
554.9999999999999990	0.2295755341395972	0.0015451794108108	0.0013804987797890
555.9999999999999990	0.2299235950433114	0.0004108212148222	0.0003766553283274
556.9999999999999990	0.2307080283846106	0.0013273293559097	0.0011956467527674
557.9999999999999990	0.2320850163980041	0.0008055461237581	0.0007533318631269
558.9999999999999990	0.2339088097238800	0.0006387649979268	0.0005596343551542
559.9999999999999990	0.2357968976173034	0.0011367711409786	0.0010483032885854
560.9999999999999990	0.2385564407796716	0.0007953495885008	0.0006984855125066
561.9999999999999990	0.2412473047515113	0.0011051034747481	0.0010107697606502
562.9999999999999990	0.2447022968418286	0.0010183601960483	0.0008969778764636
563.9999999999999990	0.2487303623158476	0.0013595878573217	0.0012278988110355
564.9999999999999990	0.2527122967734908	0.0012452438648914	0.0011310314695453
565.9999999999999990	0.2570813464962396	0.0013413651850773	0.0012150120852673
566.9999999999999990	0.2619016634042958	0.0008230630502716	0.0007370877272057
567.9999999999999990	0.2665801490755723	0.0012234811377344	0.0011026912689925
568.9999999999999990	0.2717928105866824	0.0013806777062317	0.0012674277300410
569.9999999999999990	0.2773060146597233	0.0010492064641108	0.0009549467070287
570.9999999999999990	0.2826127299728544	0.0012652658543913	0.0011494595676453
571.9999999999999990	0.2877021120862985	0.0015519265969623	0.0014042902928757
572.9999999999999990	0.2934967477652433	0.0011615629601206	0.0010703247120888
573.9999999999999990	0.2985994523939644	0.0015528738217386	0.0014248221613478
574.9999999999999990	0.3042010610256959	0.0014761419102317	0.0013278644966297
575.9999999999999990	0.3091399749753038	0.0014112827877418	0.0012958043051137
576.9999999999999990	0.3140370670782427	0.0019622931852239	0.0017986153544746
577.9999999999999990	0.3187735432382710	0.0016451523473425	0.0015107525707564
578.9999999999999990	0.3232997235759950	0.0018144189242968	0.0016723992750034
579.9999999999999990	0.3272600726680402	0.0016380259929541	0.0015235453595387
580.9999999999999990	0.3301670811394348	0.0014656705299504	0.0013597419164925
581.9999999999999990	0.3340134416429174	0.0015625072974553	0.0014661629493522
582.9999999999999990	0.3366224488760001	0.0013452390979867	0.0012216598898482
583.9999999999999990	0.3381612563687377	0.0018053169395961	0.0017201881675121
584.9999999999999990	0.3402182783939491	0.0020653404083296	0.0018781605728708
585.9999999999999990	0.3410323963136294	0.0025131953583970	0.0023617994643802
586.9999999999999990	0.3417113393627946	0.0025236612789930	0.0023543513010794
587.9999999999999990	0.3415888296713718	0.0032629320947922	0.0030211864071047
588.9999999999999990	0.3407727642428272	0.0023019628639244	0.0021689896414905
589.9999999999999990	0.3400609157905005	0.0022913381798087	0.0021348348207041
590.9999999999999990	0.3385592439762540	0.0021749991321981	0.0020267314948906
591.9999999999999990	0.3361315840397939	0.0017679974424665	0.0016610394365882
592.9999999999999990	0.3337934772978274	0.0019118175354776	0.0017688548734241
593.9999999999999990	0.3309483349966207	0.0018597944409659	0.0017350217552630
594.9999999999999990	0.3276579864560081	0.0016163532765890	0.0015000721565901
595.9999999999999990	0.3246013228320120	0.0015619576949184	0.0014411029655227
596.9999999999999990	0.3206860093287165	0.0015049073266241	0.0013612137642570
597.9999999999999990	0.3172284324421359	0.0014322871773362	0.0013339141641915
598.9999999999999990	0.3163683737459632	0.0014376333216249	0.0013100675983959
599.9999999999999990	0.3055569498002529	0.0017392191158046	0.0015951456442123
600.9999999999999990	0.3057107358795541	0.0018380502570967	0.0016978590504986
601.9999999999999990	0.3028517167056977	0.0018176330201485	0.0016929332494697
602.9999999999999990	0.2993809023688027	0.0017100820142950	0.0015845496263766
603.9999999999999990	0.2969578953032575	0.0014455751235431	0.0013123557718858
604.9999999999999990	0.2947659033605493	0.0014978287262850	0.0013823607865322
605.9999999999999990	0.2929075929409918	0.0013855102351104	0.0013060025838017
606.9999999999999990	0.2918085613076574	0.0009993232572782	0.0009589606385502
607.9999999999999990	0.2907750361754458	0.0006492533159021	0.0005846113719687
608.9999999999999990	0.2910557473843604	0.0005551997232697	0.0005134796580774
609.9999999999999990	0.2910241451824374	0.0008951789890179	0.0008141117983168
610.9999999999999990	0.2927653164969202	0.0006439306599963	0.0006029944534197
611.9999999999999990	0.2947303808359988	0.0008976828577298	0.0007756247224636
612.9999999999999990	0.2968396039549173	0.0011208269442369	0.0010253664182893
613.9999999999999990	0.2997986335714660	0.0010401459711607	0.0009545176477532
614.9999999999999990	0.3036538280461152	0.0006958765938915	0.0006193550249466
615.9999999999999990	0.3079173100605163	0.0008173390385708	0.0007329759657240
616.9999999999999990	0.3127982780891861	0.0011257003008000	0.0010091713592382
617.9999999999999990	0.3174820776398199	0.0020005214837061	0.0018695430054016
618.9999999999999990	0.3229964755664779	0.0015611717471336	0.0014588531678788
619.9999999999999990	0.3285205186082910	0.0015190602629779	0.0013689702954275
620.9999999999999990	0.3340428000966110	0.0019563789985560	0.0017692041992228
621.9999999999999990	0.3398552451107111	0.0024461219452826	0.0022665429171194
622.9999999999999990	0.3455149865758808	0.0028563390972684	0.0026385345279099
623.9999999999999990	0.3508883158872848	0.0019704657617067	0.0017945395299382
624.9999999999999990	0.3556723363189803	0.0019712609758044	0.0017899018338430
625.9999999999999990	0.3608013125596289	0.0025224145149937	0.0023215379769598
626.9999999999999990	0.3648568166462828	0.0029505812621523	0.0027463210054995
627.9999999999999990	0.3686136260963352	0.0021504009970132	0.0019880415140692
628.9999999999999990	0.3717397001637289	0.0019808219397709	0.0018531013219290
629.9999999999999990	0.3740476339787737	0.0029459405934131	0.0027358614051011
630.9999999999999990	0.3757166600443232	0.0036823210592899	0.0033866315960760
631.9999999999999990	0.3767422323216495	0.0030814248417261	0.0028662084253859
632.9999999999999990	0.3771241686126973	0.0033563356239123	0.0030688697117510
633.9999999999999990	0.3758787695825371	0.0024476924312202	0.0022723981126919
634.9999999999999990	0.3755549430471750	0.0038302715464618	0.0035270825132720
635.9999999999999990	0.3728529907169508	0.0030086957092392	0.0027842491731986
636.9999999999999990	0.3709157071761411	0.0030587613837278	0.0028845439097588
637.9999999999999990	0.3679400378425069	0.0022579530486763	0.0021131755493498
638.9999999999999990	0.3644523394272359	0.0027550423914323	0.0025372023534495
639.9999999999999990	0.3609098722618419	0.0027954976485163	0.0025989278547428
640.9999999999999990	0.3577682007644473	0.0038056982531087	0.0034896346031896
641.9999999999999990	0.3538055048118000	0.0033741995332773	0.0031304522844347
642.9999999999999990	0.3497797349593463	0.0034705246505925	0.0032634638389189
643.9999999999999990	0.3467120321307853	0.0029317586564147	0.0027542636130569
644.9999999999999990	0.3433331977257031	0.0022025328028938	0.0020756396431141
645.9999999999999990	0.3409585143913121	0.0014351965463765	0.0013801834713941
646.9999999999999990	0.3388127191171002	0.0016722196524224	0.0015487011746602
647.9999999999999990	0.3377549883294934	0.0016981233718873	0.0015851902419233
648.9999999999999990	0.3369171173583979	0.0012314806525987	0.0011352739243332
649.9999999999999990	0.3367530793482257	0.0014635105953847	0.0013649262047646
650.9999999999999990	0.3385054150163163	0.0011922695334468	0.0011043474273687
651.9999999999999990	0.3399964850266164	0.0014300340441770	0.0013083980830865
652.9999999999999990	0.3428845651004003	0.0014906371260257	0.0013732297263087
653.9999999999999990	0.3459472947039560	0.0011352144504132	0.0010569731024521
654.9999999999999990	0.3503490428718004	0.0010752199905247	0.0009869991223250
655.9999999999999990	0.3546837733676956	0.0015844506263859	0.0014422416779635
656.9999999999999990	0.3602158203835348	0.0010090421016431	0.0009390404062773
657.9999999999999990	0.3654726692132041	0.0016201437067935	0.0014666194107155
658.9999999999999990	0.3723379491725024	0.0014974603493836	0.0013961676081838
659.9999999999999990	0.3804194006104395	0.0013910785132159	0.0012616364360967
660.9999999999999990	0.3804955896525582	0.0012343719417371	0.0011260739831924
661.9999999999999990	0.3886409235298771	0.0013284000084978	0.0012086843911162
662.9999999999999990	0.3939644006676001	0.0010552159461442	0.0009781566852368
663.9999999999999990	0.3985962958525264	0.0013378684784588	0.0012129764065287
664.9999999999999990	0.4025852666262743	0.0014155075612322	0.0012948125720454
665.9999999999999990	0.4057215265611711	0.0014608008001899	0.0013237601618845
666.9999999999999990	0.4083272787191661	0.0020002557545260	0.0018017644451590
667.9999999999999990	0.4099486571359024	0.0015691789773607	0.0014176590616957
668.9999999999999990	0.4106557793492502	0.0016472108268301	0.0014639708856285
669.9999999999999990	0.4106398470037780	0.0013754013533785	0.0012261696080211
670.9999999999999990	0.4092781647698450	0.0016859541678343	0.0015005086292341
671.9999999999999990	0.4076889633197987	0.0015805782780490	0.0014553464692080
672.9999999999999990	0.4049119136650612	0.0016124995535247	0.0014520581123799
673.9999999999999990	0.4022795958775828	0.0016001543306001	0.0014799900351178
674.9999999999999990	0.3987909486227817	0.0018083554502867	0.0016375075793981
675.9999999999999990	0.3949353659342202	0.0021710843806900	0.0019765953459473
676.9999999999999990	0.3911516185418035	0.0018862567710862	0.0017356891397582
677.9999999999999990	0.3876477702429472	0.0024987616520484	0.0022761577669988
678.9999999999999990	0.3842587920684152	0.0022320443358348	0.0020532917181959
679.9999999999999990	0.3812553640271777	0.0025158292297818	0.0023322298027067
680.9999999999999990	0.3794427859912197	0.0022124909648723	0.0020395959308906
681.9999999999999990	0.3777338366127317	0.0024169701850556	0.0021858186928736
682.9999999999999990	0.3767929030531253	0.0027695301938808	0.0025883810505071
683.9999999999999990	0.3771033503308254	0.0022389161082592	0.0020267266793799
684.9999999999999990	0.3785551178461616	0.0026618790314065	0.0024657357631622
685.9999999999999990	0.3805900259581960	0.0024027966913379	0.0022347372474847
686.9999999999999990	0.3833754199499760	0.0017269287170382	0.0015705774915668
687.9999999999999990	0.3877677365508504	0.0019470723759478	0.0017611969285364
688.9999999999999990	0.3925284693426724	0.0019151866277921	0.0017494999498263
689.9999999999999990	0.3977055148049420	0.0014996319653287	0.0013336985620650
690.9999999999999990	0.4035908257898931	0.0022037521583587	0.0019682610299331
691.9999999999999990	0.4092724246876352	0.0025403082123016	0.0022857757911143
692.9999999999999990	0.4154353601832108	0.0031972972808350	0.0028864265114586
693.9999999999999990	0.4213695437136113	0.0030078590644351	0.0026970305979598
694.9999999999999990	0.4265904949895341	0.0032364116926350	0.0028840500350335
695.9999999999999990	0.4318104568622608	0.0028250439081363	0.0025180149679225
696.9999999999999990	0.4359663896862958	0.0030788082969596	0.0027366776154634
697.9999999999999990	0.4391601032090058	0.0026243686852049	0.0023252327477574
698.9999999999999990	0.4416772824308984	0.0033707695469462	0.0030120019129070
699.9999999999999990	0.4426186042491049	0.0033053702821610	0.0029530189571354
700.9999999999999990	0.4427900526058015	0.0033268517454428	0.0029536971013878
701.9999999999999990	0.4421158604413067	0.0043898369367779	0.0039340727946434
702.9999999999999990	0.4406788326452810	0.0030365827930798	0.0027274073397932
703.9999999999999990	0.4381860613741219	0.0036215723522829	0.0032353360882116
704.9999999999999990	0.4351418391344458	0.0032852005549453	0.0029110537036336
705.9999999999999990	0.4316350889960884	0.0034853586464438	0.0031001285375725
706.9999999999999990	0.4278897035674440	0.0037180232951000	0.0033470338488638
707.9999999999999990	0.4239381971336678	0.0037050304676993	0.0033050493609080
708.9999999999999990	0.4207941226710462	0.0035143307449972	0.0031375878946541
709.9999999999999990	0.4174989269255882	0.0033509452904545	0.0029546935343501
710.9999999999999990	0.4153740392079245	0.0033459468427035	0.0030090775075499
711.9999999999999990	0.4140098019723126	0.0029181447481930	0.0025849301690064
712.9999999999999990	0.4134840000185813	0.0031891785272322	0.0028365753908809
713.9999999999999990	0.4138919219471026	0.0028526593030617	0.0024996657186483
714.9999999999999990	0.4151957491026992	0.0031526702494259	0.0028863721211791
715.9999999999999990	0.4184931456283366	0.0025300155011480	0.0022552468340495
716.9999999999999990	0.4216552092493738	0.0033776992067669	0.0029919927064760
717.9999999999999990	0.4264346899939229	0.0025824812278869	0.0022653586104736
718.9999999999999990	0.4330703378862608	0.0030805406126848	0.0027463048762006
719.9999999999999990	0.4350447722616847	0.0029227448330912	0.0025805315791977
720.9999999999999990	0.4440430210354639	0.0021890891826857	0.0019520617653597
721.9999999999999990	0.4501426733037021	0.0026595742518010	0.0023715594731930
722.9999999999999990	0.4560691930327170	0.0024541514438204	0.0021839987298896
723.9999999999999990	0.4612315364975267	0.0023880194663145	0.0021417641224483
724.9999999999999990	0.4653246111400072	0.0020816019906770	0.0018650554454382
725.9999999999999990	0.4698731077890209	0.0017833368038009	0.0015689964440984
726.9999999999999990	0.4722439143072191	0.0017440154581272	0.0015303320184105
727.9999999999999990	0.4741264650641177	0.0023690558231687	0.0020560446080082
728.9999999999999990	0.4741598843173778	0.0020759014579582	0.0018019517519996
729.9999999999999990	0.4733009906401623	0.0016093321284880	0.0013795927887949
730.9999999999999990	0.4713867182903805	0.0014716308815041	0.0012398907175789
731.9999999999999990	0.4691965543739356	0.0015523626852084	0.0013398766837678
732.9999999999999990	0.4652608833047944	0.0014791366847220	0.0013046270756359
733.9999999999999990	0.4622358676441334	0.0013651263798136	0.0011716523266743
734.9999999999999990	0.4583160869329460	0.0016527938768800	0.0014574128077647
735.9999999999999990	0.4548486939886408	0.0023020814527447	0.0020837594221923
736.9999999999999990	0.4518350904716766	0.0021769010920494	0.0019613984081032
737.9999999999999990	0.4491629209948557	0.0015681226740009	0.0014064098040761
738.9999999999999990	0.4477290455864855	0.0017253981179815	0.0015022486391364
739.9999999999999990	0.4473738402448326	0.0020729664232295	0.0018460682673556
740.9999999999999990	0.4483497819158354	0.0016296747742705	0.0014753811374232
741.9999999999999990	0.4497237172290071	0.0016720007097126	0.0015396843951087
742.9999999999999990	0.4535557203531511	0.0011109627732656	0.0010073138701599
743.9999999999999990	0.4575337383810233	0.0014297074136003	0.0012905032940511
744.9999999999999990	0.4627414058977176	0.0020097854609855	0.0018013689878697
745.9999999999999990	0.4684814190818654	0.0016286846386199	0.0014870768369096
746.9999999999999990	0.4745673554628431	0.0017054028750079	0.0015148996927091
747.9999999999999990	0.4815813854968410	0.0015347021872931	0.0013479143852694
748.9999999999999990	0.4870705541221833	0.0022679912872503	0.0020313179095012
749.9999999999999990	0.4915773508420654	0.0019803160758566	0.0017643887001210
750.9999999999999990	0.4975328938307019	0.0019152614464949	0.0017321877923316
751.9999999999999990	0.5006722712901048	0.0018674135247240	0.0016671969809748
752.9999999999999990	0.5034112257275026	0.0020319968927897	0.0018059151197663
753.9999999999999990	0.5042311147460017	0.0023420427512245	0.0020855026221808
754.9999999999999990	0.5043320131333073	0.0025391485264354	0.0022677242258166
755.9999999999999990	0.5027369614780999	0.0020698207967685	0.0018341885395184
756.9999999999999990	0.4998539145582040	0.0026333455331544	0.0023640584608867
757.9999999999999990	0.4973347294158105	0.0025910696346179	0.0023219050873124
758.9999999999999990	0.4938796172031744	0.0027524095509653	0.0024909792260086
759.9999999999999990	0.4900712723689965	0.0025172157223616	0.0022918969637382
760.9999999999999990	0.4864226817596918	0.0023443909377009	0.0021352807057161
761.9999999999999990	0.4832301103381626	0.0021781408070248	0.0019689481926806
762.9999999999999990	0.4806203500053642	0.0018299195572161	0.0016810096804225
763.9999999999999990	0.4797684768359227	0.0023639173423062	0.0022038825398554
764.9999999999999990	0.4802818484265566	0.0014650399475832	0.0013422610683201
765.9999999999999990	0.4811668577023450	0.0023464468821903	0.0021296428882316
766.9999999999999990	0.4837007920313877	0.0014707731296553	0.0013157742396688
767.9999999999999990	0.4879667845613794	0.0021794205438988	0.0019056750422155
768.9999999999999990	0.4928234686239259	0.0018291733219642	0.0016119380742432
769.9999999999999990	0.4982863458678201	0.0025819444050681	0.0022183532242827
770.9999999999999990	0.5048153608440463	0.0025229361167979	0.0021803773763543
771.9999999999999990	0.5114879503564599	0.0029098387606257	0.0025405652894735
772.9999999999999990	0.5173184164026494	0.0024299602414976	0.0021547566408594
773.9999999999999990	0.5229588796011729	0.0018736490023053	0.0016257871771652
774.9999999999999990	0.5269876802191160	0.0017785712694045	0.0015224406702006
775.9999999999999990	0.5307748206832440	0.0013723678055652	0.0011710888947469
776.9999999999999990	0.5326383504810248	0.0018619069398348	0.0015974356576422
777.9999999999999990	0.5337042379316244	0.0016784220615020	0.0014305423135093
778.9999999999999990	0.5324998433424144	0.0017409487636387	0.0014948602214772
779.9999999999999990	0.5322616526804425	0.0014966944246698	0.0012840296680114
780.9999999999999990	0.5287355938218615	0.0021306339927016	0.0018728318693472
781.9999999999999990	0.5248576260508513	0.0015153932034307	0.0013229157075092
782.9999999999999990	0.5212311900928365	0.0019182980277821	0.0016427616363035
783.9999999999999990	0.5174124497565714	0.0017911517004300	0.0015256891802089
784.9999999999999990	0.5141972609957850	0.0020486189156156	0.0017611488868393
785.9999999999999990	0.5121871042713297	0.0016807390198156	0.0014351369655126
786.9999999999999990	0.5109702288536154	0.0018124356913441	0.0015822773669280
787.9999999999999990	0.5109192570027291	0.0018831834917080	0.0016338836579427
788.9999999999999990	0.5131087724873089	0.0014900159578940	0.0013424131807674
789.9999999999999990	0.5156754552168396	0.0014900426010697	0.0013103357406263
790.9999999999999990	0.5204203793009431	0.0012869457499430	0.0011045996478500
791.9999999999999990	0.5251947418536840	0.0014447589913369	0.0012728476976658
792.9999999999999990	0.5315239822521126	0.0011171265040113	0.0009757291001770
793.9999999999999990	0.5382588333288777	0.0014749897353404	0.0013022457960903
794.9999999999999990	0.5447053307790635	0.0014284480722714	0.0012540802327986
795.9999999999999990	0.5500879157390373	0.0016114022342884	0.0014260886424945
796.9999999999999990	0.5549871960778491	0.0014481421294769	0.0012748863787320
797.9999999999999990	0.5591564135319975	0.0010794544445021	0.0009636056191918
798.9999999999999990	0.5615395609026848	0.0012868444470638	0.0011347242956846
799.9999999999999990	0.5628548058274032	0.0011912556072197	0.0010848291014923
800.9999999999999990	0.5613599548129764	0.0017964634232344	0.0016478117260487
