Freq (Hz)	ref(Pa^2 rms)	mic1(Pa^2 rms)	mic2(Pa^2 rms)
549.9999999999999990	0.2676856735754163	0.0006767838339067	0.0006377582484851
550.9999999999999990	0.2636230897161870	0.0004757158284193	0.0004263333615606
551.9999999999999990	0.2624439113547186	0.0008288364621402	0.0007480438797365
552.9999999999999990	0.2615697690245805	0.0004068636583920	0.0003922784677113
553.9999999999999990	0.2609375218376528	0.0004154532668359	0.0003613778409029
554.9999999999999990	0.2607433351572745	0.0010916933535436	0.0010057424710788
555.9999999999999990	0.2611975637352443	0.0005860929498292	0.0005567088794356
556.9999999999999990	0.2622959814115119	0.0004761882145712	0.0004326809276352
557.9999999999999990	0.2634966896484247	0.0004052786690118	0.0003835907332621
558.9999999999999990	0.2653789417550979	0.0009149902776049	0.0008211042567193
559.9999999999999990	0.2681334657121925	0.0011927452625089	0.0011353387183418
560.9999999999999990	0.2709276298219620	0.0006106583847417	0.0005810033159150
561.9999999999999990	0.2741315430560828	0.0014131130659384	0.0013032551121287
562.9999999999999990	0.2779992443695619	0.0017656021930295	0.0016684327765791
563.9999999999999990	0.2823244942257288	0.0013244641980631	0.0011977091953086
564.9999999999999990	0.2870091736016663	0.0023100902219956	0.0020892228326278
565.9999999999999990	0.2920725365240971	0.0024762317071578	0.0022848407666718
566.9999999999999990	0.2973464803812742	0.0017636164148973	0.0015751089484898
567.9999999999999990	0.3029261225585283	0.0025017287088192	0.0022722705552125
568.9999999999999990	0.3088401414119242	0.0022033719951870	0.0020526419312354
569.9999999999999990	0.3147628681341447	0.0011744945180522	0.0010437495710456
570.9999999999999990	0.3209362997701409	0.0010549178201010	0.0009590671471686
571.9999999999999990	0.3270811465830230	0.0006601708091265	0.0006237039434571
572.9999999999999990	0.3334933372944793	0.0004549829760088	0.0003893936915960
573.9999999999999990	0.3393124358351182	0.0005574489393250	0.0004956885750875
574.9999999999999990	0.3453164418999697	0.0005301026023889	0.0004877813270324
575.9999999999999990	0.3514141278265474	0.0005412058621078	0.0004731276259510
576.9999999999999990	0.3569576140084698	0.0006846340389448	0.0006133549771418
577.9999999999999990	0.3621891217729460	0.0005731272331890	0.0005249054464992
578.9999999999999990	0.3675228026866496	0.0005542279099522	0.0004762386758135
579.9999999999999990	0.3712408457127617	0.0002799799918190	0.0002319191750830
580.9999999999999990	0.3751645738427345	0.0003070524021369	0.0002518037331610
581.9999999999999990	0.3792353836779803	0.0003517431641729	0.0003171727387501
582.9999999999999990	0.3822829890493313	0.0004368378365293	0.0003736452908895
583.9999999999999990	0.3843749154673710	0.0006231131604764	0.0005668098393459
584.9999999999999990	0.3861466574000604	0.0004856293169459	0.0004617856598045
585.9999999999999990	0.3872908302557787	0.0005115152037262	0.0004431483412098
586.9999999999999990	0.3878260266405339	0.0007229763035693	0.0006387232866592
587.9999999999999990	0.3878120476367590	0.0004642054187230	0.0004223151673288
588.9999999999999990	0.3869536045279723	0.0005497016922685	0.0004718182308677
589.9999999999999990	0.3856219846015505	0.0007611011599426	0.0006682240905142
590.9999999999999990	0.3842400440702677	0.0003290184571814	0.0003258651800921
591.9999999999999990	0.3811752877015583	0.0002322487874512	0.0001823672397542
592.9999999999999990	0.3784347742482911	0.0003171727469992	0.0002663660754630
593.9999999999999990	0.3753131963077221	0.0002102971486804	0.0001899203352017
594.9999999999999990	0.3714302483042394	0.0003045255357863	0.0002436645610699
595.9999999999999990	0.3678369731366306	0.0006841201321477	0.0005977564002150
596.9999999999999990	0.3632157045813585	0.0001611981825623	0.0001483234034290
597.9999999999999990	0.3595133250198638	0.0005432250286953	0.0004671362700749
598.9999999999999990	0.3544353329908644	0.0004565052761106	0.0004106175446212
599.9999999999999990	0.3459792242169422	0.0003535390177605	0.0003106953205768
600.9999999999999990	0.3493355955873884	0.0006580840344844	0.0006072009990831
601.9999999999999990	0.3427359050917818	0.0005092341316361	0.0004677167144200
602.9999999999999990	0.3391203310371801	0.0003462989858155	0.0003072837209521
603.9999999999999990	0.3359541816757066	0.0003322374717190	0.0003147549924981
604.9999999999999990	0.3328861358640895	0.0001927134206266	0.0001813674213023
605.9999999999999990	0.3311743475595429	0.0001466097339776	0.0001235673391268
606.9999999999999990	0.3296386402331408	0.0002716915717211	0.0002313660052340
607.9999999999999990	0.3286194375775640	0.0002508649755379	0.0002238541430220
608.9999999999999990	0.3288696225495268	0.0001096373158737	0.0000957440443124
609.9999999999999990	0.3291093481646090	0.0002235025474053	0.0001873151839071
610.9999999999999990	0.3303614830310794	0.0001738058101315	0.0001459476045746
611.9999999999999990	0.3329646849341784	0.0001445548323688	0.0001149788866212
612.9999999999999990	0.3353603199189761	0.0003232191177342	0.0002701509847188
613.9999999999999990	0.3383203478198084	0.0002485355790564	0.0002128809973646
614.9999999999999990	0.3430085660064918	0.0002038950065881	0.0001538493785291
615.9999999999999990	0.3480940262297560	0.0003639630969220	0.0002957048498896
616.9999999999999990	0.3534503688296652	0.0002964126662909	0.0002420514388495
617.9999999999999990	0.3586032880537103	0.0002196060296140	0.0001820024594342
618.9999999999999990	0.3645469921602790	0.0002753039743601	0.0002257089804707
619.9999999999999990	0.3709125039606501	0.0004014065182623	0.0003414435911725
620.9999999999999990	0.3776298635997081	0.0004164735278024	0.0003529218805843
621.9999999999999990	0.3840819870651317	0.0004444699816720	0.0003809168909816
622.9999999999999990	0.3902592496991199	0.0003463741101255	0.0002824179821319
623.9999999999999990	0.3965537422002475	0.0005558310635163	0.0004733910590994
624.9999999999999990	0.4024948699237078	0.0007003163817103	0.0006244749440921
625.9999999999999990	0.4076618405620092	0.0003632535274800	0.0003421011273780
626.9999999999999990	0.4125310316928982	0.0003433385346384	0.0002988075083600
627.9999999999999990	0.4164966423891688	0.0005167500476915	0.0004379339315484
628.9999999999999990	0.4198554585740540	0.0003453530604984	0.0003309591939124
629.9999999999999990	0.4226344700027828	0.0005427896276016	0.0004736537176257
630.9999999999999990	0.4246118964333836	0.0005975639384377	0.0005188373560863
631.9999999999999990	0.4252552262795657	0.0003254706665066	0.0002891621126197
632.9999999999999990	0.4257233956747150	0.0002632314131794	0.0002267796292039
633.9999999999999990	0.4250018802786369	0.0003904201720532	0.0003276514484818
634.9999999999999990	0.4237324815462401	0.0002166201132792	0.0001917354639224
635.9999999999999990	0.4212746618084958	0.0003435224630219	0.0002945050784936
636.9999999999999990	0.4182523901484584	0.0004889801140327	0.0004151087776460
637.9999999999999990	0.4150867697508868	0.0005023485706106	0.0004379296936841
638.9999999999999990	0.4114497042250404	0.0004353115707280	0.0003726819672540
639.9999999999999990	0.4069236835656636	0.0002655965167979	0.0002229141422657
640.9999999999999990	0.4030442421952422	0.0004787419501051	0.0004003003455667
641.9999999999999990	0.3984348407397737	0.0006224563409954	0.0005531745919555
642.9999999999999990	0.3945955107112503	0.0003817804199471	0.0003298052232930
643.9999999999999990	0.3905188645960601	0.0008519078662658	0.0007213694799663
644.9999999999999990	0.3866055159112097	0.0010446046709589	0.0009524032572295
645.9999999999999990	0.3842583046228220	0.0004110866715842	0.0003755117748089
646.9999999999999990	0.3815324263036996	0.0005536780941281	0.0004795741194631
647.9999999999999990	0.3794835002770083	0.0010336604433124	0.0009230793484050
648.9999999999999990	0.3800410610535231	0.0009594521024162	0.0008502025855311
649.9999999999999990	0.3805312615410718	0.0008360857160293	0.0007761043491057
650.9999999999999990	0.3801075736303547	0.0002289499259304	0.0002195859593452
651.9999999999999990	0.3823979256498487	0.0006059716093322	0.0005166374771469
652.9999999999999990	0.3857244012790029	0.0009781001962249	0.0008776761482283
653.9999999999999990	0.3894804807993212	0.0004092730887625	0.0003874427122825
654.9999999999999990	0.3938546743854731	0.0005532666608869	0.0005135570515271
655.9999999999999990	0.3990274620913600	0.0003840124899814	0.0003381745703666
656.9999999999999990	0.4051997242214999	0.0006066032570390	0.0005168064524657
657.9999999999999990	0.4112652677271930	0.0007908730435254	0.0006907143771830
658.9999999999999990	0.4169743852170756	0.0009955490449312	0.0008626246905663
659.9999999999999990	0.4244407062245971	0.0008142320422767	0.0007120058060342
660.9999999999999990	0.4324525876444719	0.0005958899676758	0.0005362174320549
661.9999999999999990	0.4373338367462505	0.0005562615705025	0.0004706533740130
662.9999999999999990	0.4429797400089345	0.0008553773822886	0.0007393505985416
663.9999999999999990	0.4485873497782727	0.0006940008832057	0.0006149473981803
664.9999999999999990	0.4532295732028754	0.0004805964580045	0.0004072468801738
665.9999999999999990	0.4565411245318128	0.0007177569536992	0.0006367435389094
666.9999999999999990	0.4594683363724738	0.0003487314001584	0.0003150373991793
667.9999999999999990	0.4616317351391775	0.0003905186066637	0.0003324912058568
668.9999999999999990	0.4617504665752650	0.0007517040679037	0.0006298738229259
669.9999999999999990	0.4620341908197812	0.0007003326440915	0.0006048596803701
670.9999999999999990	0.4603407190202073	0.0006539189913361	0.0005999509963069
671.9999999999999990	0.4586948198928461	0.0004316978316084	0.0003971583260513
672.9999999999999990	0.4555898809005207	0.0003312100416319	0.0003004061427053
673.9999999999999990	0.4519703927840755	0.0004214616975370	0.0003588272943765
674.9999999999999990	0.4480173837900535	0.0005681727422734	0.0004939530867334
675.9999999999999990	0.4436310903906494	0.0005594273616865	0.0004933388857162
676.9999999999999990	0.4397627814309361	0.0008319309601247	0.0007459393639735
677.9999999999999990	0.4354816701137881	0.0005193706113862	0.0004679094495851
678.9999999999999990	0.4311037796751229	0.0002119784082182	0.0001930992218780
679.9999999999999990	0.4277679279953125	0.0004833576298931	0.0004122131159565
680.9999999999999990	0.4257471451631301	0.0006687646464751	0.0006027055579737
681.9999999999999990	0.4233119925096308	0.0003351313068019	0.0002841786047350
682.9999999999999990	0.4224262437492004	0.0005642265815340	0.0004684941120826
683.9999999999999990	0.4231476464936039	0.0005451150183232	0.0004683929203064
684.9999999999999990	0.4245005956791928	0.0004369116449210	0.0004011463123881
685.9999999999999990	0.4267433335732423	0.0005426664358196	0.0004545315363989
686.9999999999999990	0.4300135003696594	0.0005884571305831	0.0004982278701195
687.9999999999999990	0.4349017981392541	0.0004684949765297	0.0003973815020025
688.9999999999999990	0.4395754054707772	0.0004959555530242	0.0004280178360696
689.9999999999999990	0.4462759969631859	0.0002390192012929	0.0002005754420597
690.9999999999999990	0.4525509292823415	0.0003920801312589	0.0003266315256480
691.9999999999999990	0.4590389297873698	0.0002987755732160	0.0002462309374650
692.9999999999999990	0.4659870835587990	0.0002111843365247	0.0001606031908919
693.9999999999999990	0.4723140934669843	0.0004633578631994	0.0003883212964310
694.9999999999999990	0.4787599590429764	0.0005177698975336	0.0004405006980181
695.9999999999999990	0.4843957975193564	0.0004015300434058	0.0003346341971306
696.9999999999999990	0.4889940183057194	0.0007316396559942	0.0006189409832050
697.9999999999999990	0.4923134091359646	0.0008344826124478	0.0007268540588097
698.9999999999999990	0.4953473058707692	0.0005247140162536	0.0004374247978088
699.9999999999999990	0.4962732081731729	0.0008469030536004	0.0007232603270106
700.9999999999999990	0.4967559159002959	0.0008519611072907	0.0007383212237732
701.9999999999999990	0.4958563508525130	0.0010588084118277	0.0008895040280266
702.9999999999999990	0.4939021176822531	0.0013408830772960	0.0012108589469700
703.9999999999999990	0.4909879886635686	0.0006427492200805	0.0005640462989632
704.9999999999999990	0.4874864901440691	0.0008090575898486	0.0006807874644627
705.9999999999999990	0.4833349510309805	0.0007830992140085	0.0006841327677138
706.9999999999999990	0.4791625644697747	0.0006409849671874	0.0005327628334398
707.9999999999999990	0.4749512284001981	0.0009781685634656	0.0008448906949814
708.9999999999999990	0.4703967436331323	0.0009096546721505	0.0007960953436044
709.9999999999999990	0.4673721469483095	0.0007168423445553	0.0006268106934875
710.9999999999999990	0.4643462872521405	0.0006348543434552	0.0005430794904859
711.9999999999999990	0.4627996098523246	0.0009810565569827	0.0008723384786566
712.9999999999999990	0.4624216024938598	0.0007154168240810	0.0006693955873424
713.9999999999999990	0.4626796992232521	0.0005346992262415	0.0004619515623774
714.9999999999999990	0.4644181542279002	0.0005363282767255	0.0004611065738844
715.9999999999999990	0.4676040813018191	0.0007626441109528	0.0006727401129881
716.9999999999999990	0.4713014904206538	0.0010178181013851	0.0008848519404645
717.9999999999999990	0.4768801735391744	0.0008577862314866	0.0007736449554160
718.9999999999999990	0.4827982406429168	0.0007924632719751	0.0006931393272291
719.9999999999999990	0.4876909343884422	0.0011861656532118	0.0010570917471884
720.9999999999999990	0.4970114444148709	0.0008024226126586	0.0006985892563642
721.9999999999999990	0.5037339847491283	0.0011174394930178	0.0009561503020950
722.9999999999999990	0.5099311937329827	0.0012652015577812	0.0010856737695582
723.9999999999999990	0.5159809453193456	0.0009158810842604	0.0008257516963954
724.9999999999999990	0.5208025785179446	0.0008759781269674	0.0007827977638995
725.9999999999999990	0.5254422311380023	0.0007413960721186	0.0006615129869336
726.9999999999999990	0.5282888149235991	0.0006404454372353	0.0005553070730094
727.9999999999999990	0.5297098171694009	0.0013209411656024	0.0011516142968225
728.9999999999999990	0.5304127349434264	0.0008571224659307	0.0007429885151531
729.9999999999999990	0.5287654299193691	0.0010547106539537	0.0009431795986530
730.9999999999999990	0.5274205526603144	0.0010787468790896	0.0010103829968240
731.9999999999999990	0.5240705048176409	0.0005844332027730	0.0005677374736889
732.9999999999999990	0.5199930078216712	0.0007570710469185	0.0007020463501733
733.9999999999999990	0.5162601456384086	0.0005319137961614	0.0004792055173321
734.9999999999999990	0.5116491260009114	0.0008484658896759	0.0007407534699071
735.9999999999999990	0.5079608194337328	0.0006650628081351	0.0005987771287434
736.9999999999999990	0.5041721248134845	0.0008014917195499	0.0007090690973217
737.9999999999999990	0.5009375205029540	0.0006873578051235	0.0006163192567184
738.9999999999999990	0.4993952600805785	0.0006690031743762	0.0005922732297712
739.9999999999999990	0.4992657574773652	0.0006222617105784	0.0005708748002989
740.9999999999999990	0.4999370921314210	0.0005810096192550	0.0005246268447299
741.9999999999999990	0.5016235122841396	0.0007219917023989	0.0006322955630330
742.9999999999999990	0.5056315218790266	0.0007926909901760	0.0006920799701676
743.9999999999999990	0.5102741882675168	0.0008148518565223	0.0007086071776986
744.9999999999999990	0.5162077546327490	0.0010534003835283	0.0009455013701502
745.9999999999999990	0.5223770331806248	0.0010477980270605	0.0009376352278964
746.9999999999999990	0.5295964050131227	0.0007957902823426	0.0007025518830895
747.9999999999999990	0.5370055358508073	0.0005222922820937	0.0004669217221364
748.9999999999999990	0.5449412411869248	0.0006591868105470	0.0005440915495627
749.9999999999999990	0.5482058484267159	0.0007196984750112	0.0005923955039394
750.9999999999999990	0.5545200367654537	0.0009486860847878	0.0007768144831093
751.9999999999999990	0.5584046447527655	0.0013068628645528	0.0011001861226310
752.9999999999999990	0.5616884360022624	0.0011971306414196	0.0010069808598340
753.9999999999999990	0.5620633660999249	0.0013188236264123	0.0011045910855979
754.9999999999999990	0.5623439930278178	0.0016949449777903	0.0014344625425608
755.9999999999999990	0.5606953400705355	0.0017549944762113	0.0015070948192441
756.9999999999999990	0.5580281167358291	0.0018105276592036	0.0015971286579631
757.9999999999999990	0.5546042738666863	0.0017720813676698	0.0015542823037674
758.9999999999999990	0.5499072699023843	0.0017742717331908	0.0015345498093635
759.9999999999999990	0.5457821116996127	0.0021197444757823	0.0018550224183179
760.9999999999999990	0.5417541125064600	0.0025289658803260	0.0022316090989898
761.9999999999999990	0.5380372724481770	0.0021298621117038	0.0018889064093099
762.9999999999999990	0.5352597536233571	0.0024143880240329	0.0021388622808351
763.9999999999999990	0.5341595985411465	0.0024793808580878	0.0022550757445932
764.9999999999999990	0.5340625795742076	0.0024005847402364	0.0021442062919413
765.9999999999999990	0.5355073417463194	0.0021145100417931	0.0019045283417392
766.9999999999999990	0.5384036104527494	0.0023710283774140	0.0021825283541586
767.9999999999999990	0.5429114445732502	0.0017175999261690	0.0015852731181411
768.9999999999999990	0.5482740917120672	0.0016866968799912	0.0015616641650302
769.9999999999999990	0.5549627619557806	0.0015111765629922	0.0013636598520084
770.9999999999999990	0.5620087060152821	0.0018971100811530	0.0017401141737552
771.9999999999999990	0.5693935750267604	0.0020567288531158	0.0018806898198584
772.9999999999999990	0.5759201915145999	0.0016581175697697	0.0014845319024632
773.9999999999999990	0.5819534183869262	0.0022147791583811	0.0019840912386383
774.9999999999999990	0.5868432235926021	0.0022804592083942	0.0020940858546136
775.9999999999999990	0.5908593658146402	0.0021073258660386	0.0019387018085789
776.9999999999999990	0.5934460798756002	0.0019469823398956	0.0017718143279048
777.9999999999999990	0.5939252218756417	0.0018505722003735	0.0016861909828430
778.9999999999999990	0.5933340278628652	0.0016921824990599	0.0015520963018460
779.9999999999999990	0.5907154665881578	0.0017209363124881	0.0015498413013553
780.9999999999999990	0.5873115755736844	0.0017943245753917	0.0016355878896969
781.9999999999999990	0.5839164741502698	0.0020826051417791	0.0018990469391880
782.9999999999999990	0.5792189653158548	0.0018551474567828	0.0016931552592467
783.9999999999999990	0.5752032220727474	0.0016650110839998	0.0014766051653695
784.9999999999999990	0.5712882249481781	0.0018653698044877	0.0015897907204020
785.9999999999999990	0.5687696406828121	0.0020980698958250	0.0018297287271998
786.9999999999999990	0.5675875801187552	0.0018724266289138	0.0016434250881049
787.9999999999999990	0.5676508095642132	0.0017386079712985	0.0015222326490581
788.9999999999999990	0.5694299290128806	0.0017034846911238	0.0014780563047912
789.9999999999999990	0.5728625026142963	0.0017585930415952	0.0015213340032787
790.9999999999999990	0.5780057012011884	0.0018004258016128	0.0015871813701187
791.9999999999999990	0.5834721241561178	0.0014850918553625	0.0013174616824613
792.9999999999999990	0.5904430244198702	0.0019165413796538	0.0016589545959946
793.9999999999999990	0.5978252604917635	0.0020977258001137	0.0018827606718155
794.9999999999999990	0.6052513723387005	0.0020047837838045	0.0018099818925246
795.9999999999999990	0.6112679406221696	0.0017843587112890	0.0015605614971693
796.9999999999999990	0.6172069206247486	0.0020678021313578	0.0018295584834673
797.9999999999999990	0.6207602324082748	0.0022147703289805	0.0019822440770560
798.9999999999999990	0.6236314777121537	0.0017524590112476	0.0015907634386689
799.9999999999999990	0.6250999719059875	0.0018328731643034	0.0016494590042430
800.9999999999999990	0.6239751102937866	0.0016462580582639	0.0014872448167098
