Freq (Hz)	ref(Pa^2 rms)	mic1(Pa^2 rms)	mic2(Pa^2 rms)
549.9999999999999990	0.2199714473130002	0.0009662327565233	0.0010283898775879
550.9999999999999990	0.2181580330585621	0.0006088067536235	0.0006083715987349
551.9999999999999990	0.2172903932277313	0.0011703489829056	0.0011779620109787
552.9999999999999990	0.2163425028290054	0.0013956646636936	0.0014518840432782
553.9999999999999990	0.2160354434248433	0.0013262560662966	0.0014118530339522
554.9999999999999990	0.2158080393920485	0.0009536436477171	0.0010005764868031
555.9999999999999990	0.2164325650031177	0.0015964125245445	0.0016430617705284
556.9999999999999990	0.2171453781855885	0.0012444881456566	0.0013314976344256
557.9999999999999990	0.2184271099965852	0.0011651047339323	0.0012715554706791
558.9999999999999990	0.2200035035410457	0.0010298426562294	0.0010573712417749
559.9999999999999990	0.2222116837421552	0.0015958651513154	0.0017173899931014
560.9999999999999990	0.2244716488328797	0.0012323815864782	0.0013374821391825
561.9999999999999990	0.2270503265175060	0.0010769977340338	0.0011485036976253
562.9999999999999990	0.2302099280430395	0.0014636978228747	0.0015427887680251
563.9999999999999990	0.2342541279360465	0.0010573768205677	0.0010810122831749
564.9999999999999990	0.2374574691603686	0.0014718211016759	0.0015051235312424
565.9999999999999990	0.2420404302073576	0.0016905799519263	0.0017406717073270
566.9999999999999990	0.2464298402978684	0.0017010490446276	0.0017851208127202
567.9999999999999990	0.2508293958592775	0.0016697366871014	0.0017272336755760
568.9999999999999990	0.2559257941855156	0.0014479011218883	0.0014744381382959
569.9999999999999990	0.2608453490754342	0.0020117652203760	0.0020648458119831
570.9999999999999990	0.2659372817574464	0.0014673421111730	0.0015173216804649
571.9999999999999990	0.2708389005257497	0.0021233019412064	0.0022165985327575
572.9999999999999990	0.2762683992950993	0.0011585966143947	0.0012302246054016
573.9999999999999990	0.2810831320509903	0.0018221773855054	0.0018873094227717
574.9999999999999990	0.2862428608963640	0.0019359169950279	0.0020575702425790
575.9999999999999990	0.2909707014677850	0.0022120154328316	0.0023397909021569
576.9999999999999990	0.2956704537917251	0.0022131566743077	0.0023247105782430
577.9999999999999990	0.3001279494466209	0.0029767456485227	0.0031132880120742
578.9999999999999990	0.3039910928619610	0.0027011397487983	0.0028638481537270
579.9999999999999990	0.3077574997462603	0.0028830241108571	0.0031127487318098
580.9999999999999990	0.3108040028850673	0.0024441375029142	0.0025673824405218
581.9999999999999990	0.3144508464754857	0.0020964298747019	0.0022216737317730
582.9999999999999990	0.3166048063996995	0.0012709015899619	0.0012885875553852
583.9999999999999990	0.3182249419722591	0.0017230592129978	0.0017204146519418
584.9999999999999990	0.3202144313484629	0.0021067597174271	0.0021111604972395
585.9999999999999990	0.3209606816181946	0.0024550437046424	0.0025727273188764
586.9999999999999990	0.3215672515779143	0.0023440645171243	0.0023948062633129
587.9999999999999990	0.3215996264471356	0.0025107695438743	0.0025964876188157
588.9999999999999990	0.3210148879305651	0.0032284533647346	0.0032920190493493
589.9999999999999990	0.3202999646140673	0.0036759040098117	0.0038754903935813
590.9999999999999990	0.3182669535043461	0.0030177160308412	0.0031682823825180
591.9999999999999990	0.3166873683147816	0.0029309372177239	0.0030569994186693
592.9999999999999990	0.3142144456169164	0.0027308273389898	0.0028294699672588
593.9999999999999990	0.3120236953603911	0.0030835119870371	0.0032322562359449
594.9999999999999990	0.3084633666732202	0.0028111004188964	0.0029153672581544
595.9999999999999990	0.3056851990461664	0.0025354324860401	0.0027005819264851
596.9999999999999990	0.3020392212555120	0.0017722622142002	0.0018295181422717
597.9999999999999990	0.2987022340001763	0.0022723313097976	0.0023267817637843
598.9999999999999990	0.2976329434744149	0.0035856841082928	0.0036848754190696
599.9999999999999990	0.2905300781684144	0.0035538474526859	0.0037833351774906
600.9999999999999990	0.2867489833616051	0.0029190470056008	0.0030985353120033
601.9999999999999990	0.2855830922828358	0.0022017296325069	0.0023740801909127
602.9999999999999990	0.2823811496946182	0.0018934791955441	0.0020146190438102
603.9999999999999990	0.2799214127451527	0.0020609952365482	0.0022300578615941
604.9999999999999990	0.2776051997846363	0.0020818638901183	0.0022323425131777
605.9999999999999990	0.2762270895004596	0.0016689029239305	0.0018527031970334
606.9999999999999990	0.2748018420912781	0.0008639923065605	0.0009216735916803
607.9999999999999990	0.2744522544613305	0.0009160266694149	0.0009652638691491
608.9999999999999990	0.2741739100589017	0.0016485190221908	0.0017019596404729
609.9999999999999990	0.2746295269131243	0.0017202226544197	0.0018416210387207
610.9999999999999990	0.2759015675277542	0.0014644765541241	0.0015406734886197
611.9999999999999990	0.2778422400616948	0.0013547932566444	0.0014593346279173
612.9999999999999990	0.2800444736947351	0.0015952991479176	0.0016147444570346
613.9999999999999990	0.2826824674741971	0.0013707564297358	0.0014300475845882
614.9999999999999990	0.2863639853485923	0.0017176341047938	0.0017895317737074
615.9999999999999990	0.2903384746095155	0.0014338088084699	0.0014746578405968
616.9999999999999990	0.2947013067751135	0.0019251256526914	0.0020044466666698
617.9999999999999990	0.2994050424462239	0.0020491507369618	0.0021471121321738
618.9999999999999990	0.3047052941337814	0.0028599083610723	0.0030106701057344
619.9999999999999990	0.3093873610540278	0.0022772686308916	0.0023947049064081
620.9999999999999990	0.3154186758821333	0.0028684482612467	0.0029799555545965
621.9999999999999990	0.3203451729243175	0.0032274015566836	0.0034022093731607
622.9999999999999990	0.3256498915608475	0.0040813698663407	0.0043268656045507
623.9999999999999990	0.3309586092479557	0.0041052839427774	0.0044473842045451
624.9999999999999990	0.3358794306442420	0.0039824773417431	0.0042512083799523
625.9999999999999990	0.3399428446043330	0.0033762626054448	0.0036148975209689
626.9999999999999990	0.3439012830649378	0.0032470045611309	0.0034192734613121
627.9999999999999990	0.3475963664892491	0.0037417422835801	0.0040010399289101
628.9999999999999990	0.3505369301657095	0.0036454296949879	0.0038485798320500
629.9999999999999990	0.3525355132288471	0.0047844192816443	0.0050584509715777
630.9999999999999990	0.3540441662608663	0.0044827989305742	0.0047811313227501
631.9999999999999990	0.3552392609817125	0.0043975050164426	0.0046651360286340
632.9999999999999990	0.3556352016227828	0.0045922121791208	0.0048714241797662
633.9999999999999990	0.3548098522907481	0.0044488824391042	0.0047992389405487
634.9999999999999990	0.3538620357090024	0.0039644304979880	0.0041612612852948
635.9999999999999990	0.3518376542447491	0.0043716764092195	0.0046315905809761
636.9999999999999990	0.3497901496076199	0.0040772706517128	0.0042596843479193
637.9999999999999990	0.3469133646064062	0.0044634547081799	0.0047496554819328
638.9999999999999990	0.3439315499666944	0.0030926248637689	0.0032710914395524
639.9999999999999990	0.3404769731151506	0.0036023093814909	0.0037457843053542
640.9999999999999990	0.3374040876745094	0.0038381671110537	0.0038921691463178
641.9999999999999990	0.3335626482645689	0.0052077592975798	0.0054026136762988
642.9999999999999990	0.3302170802448810	0.0042722218637463	0.0044651800022944
643.9999999999999990	0.3271181901357658	0.0044932204567755	0.0047890170791360
644.9999999999999990	0.3241084911550344	0.0033631321306025	0.0034726291804504
645.9999999999999990	0.3221421073226660	0.0049189386539511	0.0052347043720603
646.9999999999999990	0.3200008659834825	0.0038398028637820	0.0041088349468367
647.9999999999999990	0.3185595995289622	0.0040951527054270	0.0043932206524606
648.9999999999999990	0.3178153781647935	0.0028972896550120	0.0031181435958555
649.9999999999999990	0.3189986073835647	0.0033464590258312	0.0035970309751044
650.9999999999999990	0.3194429901747901	0.0034515441694573	0.0037400760954345
651.9999999999999990	0.3210925132364870	0.0033356782431981	0.0035187299625846
652.9999999999999990	0.3237408386092783	0.0028542191888284	0.0030333117572060
653.9999999999999990	0.3268399865753053	0.0029721896565938	0.0031815909908420
654.9999999999999990	0.3305460595837087	0.0021758421625997	0.0023512199314731
655.9999999999999990	0.3351427356614672	0.0025235752627436	0.0026576632985694
656.9999999999999990	0.3397935552668113	0.0019774144566987	0.0021059261775222
657.9999999999999990	0.3452938407327218	0.0029235113750017	0.0030922365835077
658.9999999999999990	0.3490750805027137	0.0032549931274312	0.0034699889436061
659.9999999999999990	0.3608836562927085	0.0025514249892890	0.0027498506008190
660.9999999999999990	0.3609058540233813	0.0031770623403909	0.0033746503765801
661.9999999999999990	0.3668016881840845	0.0035532774379642	0.0036799840347013
662.9999999999999990	0.3719270186168248	0.0035975988064187	0.0038816339372158
663.9999999999999990	0.3761191277819970	0.0030596957732850	0.0032628103922685
664.9999999999999990	0.3803750824496084	0.0035330297456826	0.0038308034520464
665.9999999999999990	0.3831133071189913	0.0031183330892719	0.0033260208406209
666.9999999999999990	0.3854361533501362	0.0029770144761020	0.0032007470829205
667.9999999999999990	0.3869284966666232	0.0034016023178835	0.0035202023951578
668.9999999999999990	0.3877562859744535	0.0036758668916977	0.0039719603082486
669.9999999999999990	0.3876395752105175	0.0042644621373640	0.0045014064927867
670.9999999999999990	0.3865109381143726	0.0034579608493204	0.0037658042717094
671.9999999999999990	0.3851227987707233	0.0044705376392752	0.0048220334790712
672.9999999999999990	0.3828853057977958	0.0028188941184295	0.0031486045454673
673.9999999999999990	0.3798054279640770	0.0035653214785374	0.0037979967789280
674.9999999999999990	0.3765293560535559	0.0024506844464273	0.0027090286511190
675.9999999999999990	0.3733004573898322	0.0029785485280864	0.0031505098380336
676.9999999999999990	0.3695141090393865	0.0029277272618928	0.0032085392475089
677.9999999999999990	0.3662675379077192	0.0031689234638406	0.0033147575039583
678.9999999999999990	0.3631189836195188	0.0030135057655963	0.0032384913789310
679.9999999999999990	0.3609306890661945	0.0028612008083641	0.0030029651324270
680.9999999999999990	0.3584026961790996	0.0031291350643307	0.0032605829834945
681.9999999999999990	0.3569145314187454	0.0033539582909163	0.0035451317740478
682.9999999999999990	0.3563024642682585	0.0032109975386018	0.0034336683242603
683.9999999999999990	0.3567173146918026	0.0034104255283194	0.0035472652819260
684.9999999999999990	0.3574119306874721	0.0039364186506013	0.0041911317790863
685.9999999999999990	0.3604957060798443	0.0037343379783101	0.0039502590747472
686.9999999999999990	0.3621082544573455	0.0038065915809386	0.0041528936451236
687.9999999999999990	0.3667859289928416	0.0036429824200444	0.0038571875269272
688.9999999999999990	0.3711254678577797	0.0037605218927253	0.0040439910565330
689.9999999999999990	0.3760750445655398	0.0030466011841165	0.0032249850235679
690.9999999999999990	0.3815726151182388	0.0039837788145741	0.0041303381361765
691.9999999999999990	0.3871008060104326	0.0036663491631687	0.0038932419820521
692.9999999999999990	0.3925181541086419	0.0040276512658984	0.0042663708526953
693.9999999999999990	0.3983501663412735	0.0039670434973776	0.0041135363329310
694.9999999999999990	0.4030212607110514	0.0049220118390171	0.0051603744191891
695.9999999999999990	0.4082094288022707	0.0039312239383132	0.0041678235414321
696.9999999999999990	0.4121249937835345	0.0042469109135607	0.0044201380574716
697.9999999999999990	0.4148889591289676	0.0041076626816672	0.0043731672064330
698.9999999999999990	0.4174647174250928	0.0035216852407986	0.0036707968111660
699.9999999999999990	0.4184033966157815	0.0046181580526141	0.0047825184799392
700.9999999999999990	0.4187801978405740	0.0044998841772328	0.0047358268850317
701.9999999999999990	0.4178929009087206	0.0049118996154437	0.0051415996228789
702.9999999999999990	0.4166860892062940	0.0052041802156556	0.0053783170342439
703.9999999999999990	0.4142757175799814	0.0064169925937034	0.0067779113812044
704.9999999999999990	0.4114168076019958	0.0059281487376936	0.0061293612191678
705.9999999999999990	0.4083871061124994	0.0080818711371513	0.0085066757749730
706.9999999999999990	0.4046169036709591	0.0075870098849653	0.0079702587389725
707.9999999999999990	0.4012073865055553	0.0075221080986444	0.0080232713794965
708.9999999999999990	0.3979295088086369	0.0061088227629924	0.0065033368926708
709.9999999999999990	0.3950265951877847	0.0068353106436520	0.0073385422181764
710.9999999999999990	0.3929295947233898	0.0042626384330063	0.0046050359402495
711.9999999999999990	0.3916929478957603	0.0050385827663594	0.0054436575099326
712.9999999999999990	0.3911205038483475	0.0035050865674704	0.0037742884294767
713.9999999999999990	0.3915327410743893	0.0041638097290496	0.0044070114089999
714.9999999999999990	0.3929722865329400	0.0026107716017051	0.0027915504302671
715.9999999999999990	0.3958121139634658	0.0038041278369387	0.0040613780428330
716.9999999999999990	0.3992579056084159	0.0028854630172738	0.0030261657902589
717.9999999999999990	0.4038451481946045	0.0045890349295625	0.0048539544339954
718.9999999999999990	0.4090587646485840	0.0047207186745934	0.0050216888652003
719.9999999999999990	0.4165813982838399	0.0052684933852286	0.0056314824867017
720.9999999999999990	0.4183512370090028	0.0038426849524529	0.0041492921718535
721.9999999999999990	0.4255227844347835	0.0047096326729466	0.0049168613596359
722.9999999999999990	0.4314675434325078	0.0051921347174119	0.0055283739407660
723.9999999999999990	0.4364521736698238	0.0049285288964674	0.0052046808710528
724.9999999999999990	0.4407540947503628	0.0052007632575787	0.0055732529259837
725.9999999999999990	0.4442695585998490	0.0047736317697292	0.0050456746242611
726.9999999999999990	0.4468582894498926	0.0043945685069431	0.0046213704659472
727.9999999999999990	0.4483797446115932	0.0032664997837421	0.0034285597214797
728.9999999999999990	0.4487207478992146	0.0045605509544814	0.0047593830022823
729.9999999999999990	0.4478342636518236	0.0033794999103109	0.0035040747466571
730.9999999999999990	0.4464940326511649	0.0047604388846393	0.0049878764030411
731.9999999999999990	0.4436974691283340	0.0030060318783817	0.0031212613402412
732.9999999999999990	0.4408132878881151	0.0048706093215595	0.0050220714995527
733.9999999999999990	0.4374423149119277	0.0034288439841041	0.0035803256273513
734.9999999999999990	0.4337459821882964	0.0057571528256616	0.0061440273511530
735.9999999999999990	0.4304414230095193	0.0028654303475482	0.0031128358506326
736.9999999999999990	0.4277336817270584	0.0049451035537941	0.0052996806041851
737.9999999999999990	0.4253869979939836	0.0024059961841004	0.0026244208239647
738.9999999999999990	0.4239409093119584	0.0047498596434498	0.0050742328272220
739.9999999999999990	0.4235967614836836	0.0019366142961968	0.0020947757683167
740.9999999999999990	0.4248053842565351	0.0044389164984361	0.0047129001937892
741.9999999999999990	0.4259424670557733	0.0018657309624095	0.0019980597508755
742.9999999999999990	0.4294697179507562	0.0041530996453791	0.0043903962798332
743.9999999999999990	0.4334403335406171	0.0019192296617455	0.0020767491574276
744.9999999999999990	0.4381715679245203	0.0047271563740380	0.0049692048089241
745.9999999999999990	0.4438662732391217	0.0028794204399812	0.0030573197121588
746.9999999999999990	0.4498215844292773	0.0051476455204022	0.0053854572826025
747.9999999999999990	0.4558843835821934	0.0030617921565462	0.0032320537685894
748.9999999999999990	0.4612085869362308	0.0053949800354335	0.0055986813680040
749.9999999999999990	0.4662269726107915	0.0039707380764308	0.0041990391937681
750.9999999999999990	0.4707885846555782	0.0055960712872831	0.0058001346434223
751.9999999999999990	0.4737514468943269	0.0046807759555171	0.0049226853363195
752.9999999999999990	0.4765592195641560	0.0057050371695808	0.0059187452762128
753.9999999999999990	0.4775305968475768	0.0044345224298802	0.0046545065567515
754.9999999999999990	0.4778053085513309	0.0056555002323341	0.0058130399654653
755.9999999999999990	0.4758772273344392	0.0045602796944619	0.0047070838868582
756.9999999999999990	0.4739066594142082	0.0053088952424533	0.0053246672194887
757.9999999999999990	0.4709661391575587	0.0046785626728036	0.0047339315139006
758.9999999999999990	0.4677676587292486	0.0051568943129287	0.0051192954738328
759.9999999999999990	0.4639300791134024	0.0045636252246546	0.0044700404007313
760.9999999999999990	0.4611904899376649	0.0058004901016091	0.0058123898723929
761.9999999999999990	0.4579070045413212	0.0052728825494640	0.0052590299618392
762.9999999999999990	0.4556380540737671	0.0051799738238607	0.0051987212363585
763.9999999999999990	0.4549351810651300	0.0059885145885534	0.0059435132351145
764.9999999999999990	0.4548144503224373	0.0063163314525969	0.0063653698046592
765.9999999999999990	0.4562357008373106	0.0073767534524666	0.0074577769075736
766.9999999999999990	0.4584991999208172	0.0067780690169595	0.0069833794606508
767.9999999999999990	0.4626382832475738	0.0077074336260602	0.0079359017865146
768.9999999999999990	0.4671589705849309	0.0071980832853807	0.0076016766189980
769.9999999999999990	0.4726203174383158	0.0070245511780099	0.0073295388216518
770.9999999999999990	0.4784370596826572	0.0063834649584787	0.0068214704687273
771.9999999999999990	0.4849672164870859	0.0074784609534554	0.0079580134724889
772.9999999999999990	0.4900361043986174	0.0064382460065999	0.0069889159710599
773.9999999999999990	0.4957020252279776	0.0066847312218079	0.0072033026757234
774.9999999999999990	0.4994296316200241	0.0057637800943102	0.0061449251122720
775.9999999999999990	0.5031732510507678	0.0055908974908965	0.0060733884505869
776.9999999999999990	0.5053299860371012	0.0055534093941735	0.0059919651222681
777.9999999999999990	0.5056454208292267	0.0040692007708005	0.0044528609582933
778.9999999999999990	0.5054316693432271	0.0040330134490816	0.0043281774991707
779.9999999999999990	0.5029176447127248	0.0035458842970371	0.0037746527786077
780.9999999999999990	0.5006900639753041	0.0043105588078965	0.0045669877962415
781.9999999999999990	0.4976100680081743	0.0034240309341550	0.0037974938528619
782.9999999999999990	0.4942606736503953	0.0037974618222105	0.0040166962535940
783.9999999999999990	0.4907676530205937	0.0035073428775071	0.0036653878341877
784.9999999999999990	0.4878292880521091	0.0040875729483199	0.0042879111585794
785.9999999999999990	0.4857118168177517	0.0037127204291992	0.0039183267000403
786.9999999999999990	0.4845322758053238	0.0039396350516041	0.0041244492986114
787.9999999999999990	0.4847348185049475	0.0032950208921822	0.0034033385888400
788.9999999999999990	0.4867331025204442	0.0034430814456352	0.0035539122322262
789.9999999999999990	0.4895683342539378	0.0031395478554767	0.0032881653769191
790.9999999999999990	0.4931617948158875	0.0025958914867059	0.0027299098415253
791.9999999999999990	0.4987662278460286	0.0029741773325128	0.0030040826163717
792.9999999999999990	0.5042453411887664	0.0036796730124685	0.0037320457604705
793.9999999999999990	0.5105449141058354	0.0035401127723164	0.0036240160848658
794.9999999999999990	0.5170939336909957	0.0035044740629185	0.0036147067205826
795.9999999999999990	0.5215637007095631	0.0038662931789819	0.0039708821214883
796.9999999999999990	0.5266351713450020	0.0034575665656730	0.0035914140442506
797.9999999999999990	0.5301035094225010	0.0034530191924445	0.0035364679466375
798.9999999999999990	0.5327925457925261	0.0032717121983383	0.0034599699050195
799.9999999999999990	0.5336398993304476	0.0034622677749194	0.0036172871043705
800.9999999999999990	0.5326969607452383	0.0029121257168747	0.0031305343931796
