Freq (Hz)	ref(Pa^2 rms)	mic1(Pa^2 rms)	mic2(Pa^2 rms)
549.9999999999999990	0.2458820858921637	0.0006877654092617	0.0007031997731121
550.9999999999999990	0.2430512365100437	0.0025489541390906	0.0024081085308515
551.9999999999999990	0.2421551085422223	0.0016864835054871	0.0016812056184966
552.9999999999999990	0.2414698187120211	0.0006541954809952	0.0006276754238279
553.9999999999999990	0.2408241736960043	0.0003118631652424	0.0002798663184443
554.9999999999999990	0.2404280524267821	0.0013903477084630	0.0012987179541813
555.9999999999999990	0.2412483129152103	0.0007501266614114	0.0006892304893971
556.9999999999999990	0.2417882286679232	0.0017622800084525	0.0016403911190014
557.9999999999999990	0.2434146721102074	0.0017170651861840	0.0016316272845640
558.9999999999999990	0.2453110663953840	0.0024655410152556	0.0022870350051857
559.9999999999999990	0.2474251735670674	0.0037398528372179	0.0035042076818966
560.9999999999999990	0.2500827520297532	0.0034880281925708	0.0032281658105929
561.9999999999999990	0.2528380390882883	0.0038799498411511	0.0035379113293948
562.9999999999999990	0.2567046845483008	0.0047566686541419	0.0044172691031721
563.9999999999999990	0.2610559810208467	0.0051605881748697	0.0047946061952699
564.9999999999999990	0.2647453281919107	0.0063771537970082	0.0059759409278776
565.9999999999999990	0.2694789344409197	0.0093476396225288	0.0087678756790254
566.9999999999999990	0.2745643912566796	0.0086877719906396	0.0081627833237440
567.9999999999999990	0.2797666438803980	0.0110711825040262	0.0103221663078912
568.9999999999999990	0.2850980990236466	0.0118221351709814	0.0112630593640507
569.9999999999999990	0.2906624911154787	0.0092938961005375	0.0088458340103932
570.9999999999999990	0.2964334448011003	0.0093138826343839	0.0088372557525811
571.9999999999999990	0.3017957061525288	0.0068581137535590	0.0066394912766435
572.9999999999999990	0.3077986093371724	0.0040842805913220	0.0038548156386605
573.9999999999999990	0.3130821778499603	0.0033571990007624	0.0032671980902103
574.9999999999999990	0.3190341314044806	0.0019056675506112	0.0019097186446962
575.9999999999999990	0.3241736062658668	0.0015299713936474	0.0015226444241476
576.9999999999999990	0.3296875746209013	0.0015778959870517	0.0016472335998333
577.9999999999999990	0.3344414417245445	0.0015105674139146	0.0015456305842846
578.9999999999999990	0.3388376104246130	0.0015559215774283	0.0014886896097748
579.9999999999999990	0.3430450774642419	0.0015193022651301	0.0014523202527928
580.9999999999999990	0.3464640518770892	0.0004772398679389	0.0004863421276906
581.9999999999999990	0.3502153995022296	0.0008788829187764	0.0007941973639483
582.9999999999999990	0.3527863522820425	0.0010217162118933	0.0010002328369983
583.9999999999999990	0.3545621296224780	0.0011010486469456	0.0010232054183247
584.9999999999999990	0.3569370029401043	0.0016528764111016	0.0015220043926239
585.9999999999999990	0.3578908712152685	0.0007835133472575	0.0007850431336695
586.9999999999999990	0.3580290617414250	0.0002583545115178	0.0002385574143442
587.9999999999999990	0.3581953765943773	0.0002907943764097	0.0002493359019889
588.9999999999999990	0.3576118356781434	0.0002920615787653	0.0002390320287214
589.9999999999999990	0.3563696702723432	0.0006426014446482	0.0005249384719595
590.9999999999999990	0.3546884956909709	0.0007083887621757	0.0006276014396289
591.9999999999999990	0.3526138731270380	0.0002293544184341	0.0001951604306439
592.9999999999999990	0.3497916129227229	0.0003673031240887	0.0003124786903344
593.9999999999999990	0.3468760359874369	0.0006781853151195	0.0005696090647683
594.9999999999999990	0.3435377643062240	0.0014279090429760	0.0011694534124726
595.9999999999999990	0.3402549567921305	0.0025363210888802	0.0021178585436997
596.9999999999999990	0.3360735577221172	0.0011355947448681	0.0009740000753964
597.9999999999999990	0.3326189516792713	0.0012881869714908	0.0011484872569169
598.9999999999999990	0.3315877783243912	0.0009500230731871	0.0008389990979413
599.9999999999999990	0.3220373485288273	0.0011428938882393	0.0010608995414142
600.9999999999999990	0.3187428431445229	0.0025363941420102	0.0022596345063532
601.9999999999999990	0.3172902380822803	0.0028345125157582	0.0025501149700601
602.9999999999999990	0.3140720800244662	0.0023407865191610	0.0021212552539620
603.9999999999999990	0.3108809981661735	0.0020570930376691	0.0018782505224028
604.9999999999999990	0.3087669013120056	0.0019562366925022	0.0018641168201596
605.9999999999999990	0.3067437540581089	0.0015054936480222	0.0014790587857580
606.9999999999999990	0.3052510371113180	0.0011089737777396	0.0010204117585624
607.9999999999999990	0.3046285182894730	0.0010140232250641	0.0009255877235947
608.9999999999999990	0.3046811148876911	0.0007448857130536	0.0007038719449271
609.9999999999999990	0.3050416611829184	0.0002782093783098	0.0002600245443784
610.9999999999999990	0.3063191910795063	0.0001787268217145	0.0001633830749510
611.9999999999999990	0.3084591152368296	0.0002516731100858	0.0002540424612406
612.9999999999999990	0.3111076822722538	0.0005841618332340	0.0005526029636081
613.9999999999999990	0.3137261965043479	0.0011578765664440	0.0010616913448753
614.9999999999999990	0.3178368849707460	0.0008959238705678	0.0008294431989936
615.9999999999999990	0.3226907770643514	0.0007320129381892	0.0006752530328273
616.9999999999999990	0.3270396623898700	0.0013614301994046	0.0012052371652086
617.9999999999999990	0.3326506458603847	0.0014214369465131	0.0013028485930897
618.9999999999999990	0.3381312669949835	0.0010154989607868	0.0009503847509683
619.9999999999999990	0.3442327040098824	0.0012905152667983	0.0011468424189933
620.9999999999999990	0.3499201125620549	0.0013093768484521	0.0011605680311537
621.9999999999999990	0.3557523039497217	0.0012043655580022	0.0010367367950809
622.9999999999999990	0.3618573711113424	0.0005511082402098	0.0004775545061553
623.9999999999999990	0.3678040501191214	0.0010285849091876	0.0009081218556576
624.9999999999999990	0.3727809460016908	0.0005393267081707	0.0004894341822182
625.9999999999999990	0.3776538658345260	0.0011333001713822	0.0010294185585097
626.9999999999999990	0.3820386357970845	0.0010099277962481	0.0009627212995595
627.9999999999999990	0.3860278063558196	0.0012910724755665	0.0011200330587658
628.9999999999999990	0.3889923949345050	0.0011611871145743	0.0010582083139097
629.9999999999999990	0.3917852062904014	0.0016748599316129	0.0015439170329648
630.9999999999999990	0.3932746994919775	0.0015987000467252	0.0014465481723776
631.9999999999999990	0.3943909621102547	0.0015303290605025	0.0013946106746974
632.9999999999999990	0.3951794140806376	0.0004540778992745	0.0004158068946293
633.9999999999999990	0.3934253145209078	0.0004748818656888	0.0004184038604872
634.9999999999999990	0.3930223234386860	0.0003429466243347	0.0003319306267999
635.9999999999999990	0.3905790468152424	0.0004686330305316	0.0004532684411763
636.9999999999999990	0.3881675950336995	0.0005462210613799	0.0005098739470561
637.9999999999999990	0.3852455583528787	0.0002349651534159	0.0001964759059428
638.9999999999999990	0.3815536862430122	0.0002969936976063	0.0002657086021509
639.9999999999999990	0.3775154617455247	0.0002878559422754	0.0002568395778838
640.9999999999999990	0.3741913429489386	0.0003789248314080	0.0003417879856969
641.9999999999999990	0.3703652831372727	0.0008330448757656	0.0007428432707407
642.9999999999999990	0.3661987386909437	0.0009026938916380	0.0007976516975835
643.9999999999999990	0.3624470632791439	0.0003399197118007	0.0002846783343582
644.9999999999999990	0.3593288041149837	0.0005396203422726	0.0004520202197943
645.9999999999999990	0.3571133265313747	0.0005161445275575	0.0004462967159715
646.9999999999999990	0.3543717308458471	0.0008260967518271	0.0007482767032244
647.9999999999999990	0.3527820910550797	0.0007295399734260	0.0006794080040995
648.9999999999999990	0.3522614045482346	0.0006019002451420	0.0005516585759420
649.9999999999999990	0.3523877618277492	0.0005459868583321	0.0005077671776990
650.9999999999999990	0.3542179400119463	0.0005554394741143	0.0005192352164724
651.9999999999999990	0.3552630539977496	0.0002071301923455	0.0001907352374751
652.9999999999999990	0.3585993145979253	0.0005894299087146	0.0005584389046122
653.9999999999999990	0.3617641382020257	0.0003566747273134	0.0003246146417564
654.9999999999999990	0.3662306150912332	0.0002527414163643	0.0002322577053664
655.9999999999999990	0.3712639489546026	0.0003413350718379	0.0003148540199836
656.9999999999999990	0.3764457894155414	0.0002983923453640	0.0002719116037378
657.9999999999999990	0.3823759415569791	0.0002520709851307	0.0002592195726397
658.9999999999999990	0.3867067733813213	0.0001605783764389	0.0001343545995011
659.9999999999999990	0.3999018327008278	0.0003820067426111	0.0003490810387529
660.9999999999999990	0.3999869511101571	0.0003718605471413	0.0003251905149963
661.9999999999999990	0.4066474079244558	0.0004206426560989	0.0003899650167621
662.9999999999999990	0.4115021900001296	0.0004106760381916	0.0003723052991996
663.9999999999999990	0.4170245332435359	0.0003037795226292	0.0002613411173092
664.9999999999999990	0.4211757379518978	0.0004924888112003	0.0004312377381109
665.9999999999999990	0.4245001023752873	0.0001998823315961	0.0001854114167993
666.9999999999999990	0.4270433470797841	0.0003820209151988	0.0003524765280504
667.9999999999999990	0.4285812349260425	0.0001486646424521	0.0001345166352338
668.9999999999999990	0.4293429343018200	0.0003952822319686	0.0003586475614584
669.9999999999999990	0.4295978625796796	0.0002165634637629	0.0002017337241308
670.9999999999999990	0.4277473472198249	0.0002801945340920	0.0002512716001996
671.9999999999999990	0.4264806165340366	0.0005006303324213	0.0004589051875959
672.9999999999999990	0.4236006972940619	0.0004411031484296	0.0003877381877836
673.9999999999999990	0.4204006569436711	0.0002973996633090	0.0002589204402017
674.9999999999999990	0.4170279450130030	0.0007428734968456	0.0006541284147269
675.9999999999999990	0.4129612061581609	0.0004660661998803	0.0004083758924354
676.9999999999999990	0.4089336963699435	0.0003651538265124	0.0003186894935052
677.9999999999999990	0.4051052181473861	0.0005667785145520	0.0005014331963326
678.9999999999999990	0.4013371457753896	0.0002942810540865	0.0002742727752701
679.9999999999999990	0.3987301734890857	0.0002054903244920	0.0001637305330480
680.9999999999999990	0.3966603790887718	0.0003564043133689	0.0002953110617031
681.9999999999999990	0.3945012181070612	0.0004695528895446	0.0003902993118619
682.9999999999999990	0.3935509730603167	0.0002076266657963	0.0001698555465290
683.9999999999999990	0.3941289185679725	0.0004419491348402	0.0003525042743376
684.9999999999999990	0.3953583504394935	0.0008022563421821	0.0006958840476667
685.9999999999999990	0.3979242335552359	0.0003147722981544	0.0002840684015079
686.9999999999999990	0.4006677208425012	0.0004087446367368	0.0003395887899853
687.9999999999999990	0.4051216478565686	0.0005225928279021	0.0004428202526696
688.9999999999999990	0.4099863442732232	0.0003631291900595	0.0003293736574968
689.9999999999999990	0.4155468048109704	0.0003416241571926	0.0002876194160336
690.9999999999999990	0.4220462473682288	0.0001890090289104	0.0001630052319828
691.9999999999999990	0.4274887471681842	0.0005877580654989	0.0004960393816163
692.9999999999999990	0.4340895331189689	0.0003210693548584	0.0002658315402010
693.9999999999999990	0.4403073921771902	0.0003416905191127	0.0002804399578286
694.9999999999999990	0.4453567524620864	0.0004050993581148	0.0003309388229110
695.9999999999999990	0.4514170279404563	0.0009066185762986	0.0007555027951005
696.9999999999999990	0.4557275395569239	0.0006598049535810	0.0005697518416073
697.9999999999999990	0.4586512850083420	0.0010843290078405	0.0009179261323547
698.9999999999999990	0.4616990609480431	0.0024052223360700	0.0020714725557231
699.9999999999999990	0.4621051195766942	0.0012376661598965	0.0011039716153299
700.9999999999999990	0.4627656066395834	0.0020839637440571	0.0018257116247050
701.9999999999999990	0.4618194281322557	0.0027047856351424	0.0023745318190877
702.9999999999999990	0.4605577736303089	0.0028324366852900	0.0025858947007162
703.9999999999999990	0.4575298765295094	0.0028563425734379	0.0025183908204774
704.9999999999999990	0.4542358484987055	0.0058213477834580	0.0052485584855958
705.9999999999999990	0.4509637118959153	0.0045596964026505	0.0041623662057862
706.9999999999999990	0.4465507639610074	0.0030691295276470	0.0026727931690567
707.9999999999999990	0.4429267173945808	0.0051927016391356	0.0045872010355826
708.9999999999999990	0.4397494181040880	0.0022228556690840	0.0019900114535518
709.9999999999999990	0.4360135784951308	0.0022518125528230	0.0019928261808648
710.9999999999999990	0.4332391012159152	0.0041911604890456	0.0037448873230855
711.9999999999999990	0.4321335363760056	0.0013942907662330	0.0012878382983393
712.9999999999999990	0.4313616993111252	0.0017935373500266	0.0015957519236379
713.9999999999999990	0.4322470073127336	0.0027349449812813	0.0024687783905641
714.9999999999999990	0.4332487889117928	0.0009393451191515	0.0008682576186839
715.9999999999999990	0.4363802964192952	0.0019091850196737	0.0016889401195378
716.9999999999999990	0.4407412566686452	0.0019694227388555	0.0017801335277633
717.9999999999999990	0.4451847666776065	0.0008965997074706	0.0008392857595299
718.9999999999999990	0.4513845195717373	0.0005401860267605	0.0004723914054355
719.9999999999999990	0.4585323651738779	0.0007555604002413	0.0006726164045067
720.9999999999999990	0.4619482397857507	0.0007989179542114	0.0007248399038466
721.9999999999999990	0.4696655999191586	0.0007562142442062	0.0007097733283127
722.9999999999999990	0.4756613361421164	0.0006926277853627	0.0006599303293861
723.9999999999999990	0.4818491346121515	0.0003292453773566	0.0002958848668631
724.9999999999999990	0.4861596208736728	0.0005697271704486	0.0005040510261559
725.9999999999999990	0.4903871427622092	0.0003674915112928	0.0003196608741899
726.9999999999999990	0.4930768546087275	0.0008100231194070	0.0007060523033676
727.9999999999999990	0.4944838891112013	0.0004924997931855	0.0004444052288850
728.9999999999999990	0.4950974439130116	0.0003409762247360	0.0002989799194677
729.9999999999999990	0.4941410372938838	0.0008246589585826	0.0007069410489375
730.9999999999999990	0.4922870070989435	0.0004946350740035	0.0004314055221999
731.9999999999999990	0.4892691738771908	0.0011978227017026	0.0010699501913479
732.9999999999999990	0.4854903484683454	0.0012021286018991	0.0011158802692395
733.9999999999999990	0.4824842343342460	0.0003450575640932	0.0003437622699004
734.9999999999999990	0.4782943634077437	0.0007103737592612	0.0006053845721466
735.9999999999999990	0.4744568456180468	0.0007066453321001	0.0005959551584806
736.9999999999999990	0.4713288888373232	0.0011824884212866	0.0010465432113278
737.9999999999999990	0.4684527787205295	0.0006400987110293	0.0005702297093812
738.9999999999999990	0.4673335391162513	0.0005542780509013	0.0004879538333220
739.9999999999999990	0.4664460492837673	0.0008570286640827	0.0007367323723220
740.9999999999999990	0.4675333851611839	0.0008768327065588	0.0007680182680836
741.9999999999999990	0.4693060402341446	0.0007156852930721	0.0006232854423867
742.9999999999999990	0.4727560806935652	0.0008306934373051	0.0007321270574619
743.9999999999999990	0.4771757401049451	0.0010155462436439	0.0008618826657427
744.9999999999999990	0.4826485313504102	0.0007666598007495	0.0006553790021505
745.9999999999999990	0.4887316919784383	0.0011495850845862	0.0010138224521784
746.9999999999999990	0.4949834824030718	0.0007391333469606	0.0006304568265141
747.9999999999999990	0.5021365205897006	0.0008191263935268	0.0006841680730870
748.9999999999999990	0.5081315010046384	0.0008837890217681	0.0007628600232064
749.9999999999999990	0.5131887620631311	0.0009619565874623	0.0007949984285662
750.9999999999999990	0.5187038274309599	0.0009160583087239	0.0007612852034337
751.9999999999999990	0.5222254986987761	0.0012888363705652	0.0010947205086329
752.9999999999999990	0.5248663681359262	0.0011326816554797	0.0009624219818292
753.9999999999999990	0.5258722074029382	0.0007615234192539	0.0006293792228296
754.9999999999999990	0.5260918459414443	0.0011087781119298	0.0009164445304998
755.9999999999999990	0.5244128215734893	0.0013729520034036	0.0011899245807233
756.9999999999999990	0.5215490290070333	0.0011344778343035	0.0009571314826306
757.9999999999999990	0.5189047725644629	0.0013215765957291	0.0011304503342154
758.9999999999999990	0.5145985720482769	0.0012318784308788	0.0010402558523897
759.9999999999999990	0.5110405885123198	0.0015544410426255	0.0013126388809675
760.9999999999999990	0.5073466209452657	0.0018522368492794	0.0016159102257009
761.9999999999999990	0.5037202472048101	0.0023357640877976	0.0019917425975088
762.9999999999999990	0.5010508493151158	0.0019392304066279	0.0016876533651796
763.9999999999999990	0.5005962249787259	0.0023563803413036	0.0020676359175749
764.9999999999999990	0.5000947281554529	0.0019967055753138	0.0017847894299965
765.9999999999999990	0.5015210869419061	0.0016581229590341	0.0014831485139246
766.9999999999999990	0.5044709705787724	0.0016833370213873	0.0014909284963830
767.9999999999999990	0.5082324719414949	0.0019586154498468	0.0017414752800496
768.9999999999999990	0.5140626453571981	0.0016579622025688	0.0014700640250406
769.9999999999999990	0.5194856633155770	0.0011876771439761	0.0010599745081623
770.9999999999999990	0.5263651922687584	0.0017862270866760	0.0015916848771608
771.9999999999999990	0.5328468040459459	0.0026605669783237	0.0023957308355774
772.9999999999999990	0.5390337608052412	0.0024749550323788	0.0022344679304009
773.9999999999999990	0.5453525141937799	0.0017564650987747	0.0015476268203035
774.9999999999999990	0.5489708508538580	0.0023912986788655	0.0021868881300494
775.9999999999999990	0.5538159077947682	0.0025502921058808	0.0023967900423562
776.9999999999999990	0.5557067949505430	0.0022525024678667	0.0020602541182243
777.9999999999999990	0.5561058167971825	0.0020042361580370	0.0018455050758214
778.9999999999999990	0.5561069473610277	0.0015793295378968	0.0014606211998220
779.9999999999999990	0.5527652610567227	0.0016507690185542	0.0015303296262647
780.9999999999999990	0.5511508835762540	0.0016588664456838	0.0015475239268993
781.9999999999999990	0.5468622458692940	0.0013241225963094	0.0011989541082054
782.9999999999999990	0.5427224353397579	0.0014606966384977	0.0013349970567482
783.9999999999999990	0.5390419823689327	0.0015546093729513	0.0014194689276000
784.9999999999999990	0.5359037366496133	0.0019150167929840	0.0017192560642689
785.9999999999999990	0.5335392183225389	0.0016476374429269	0.0014883143722330
786.9999999999999990	0.5320934788691130	0.0011203502587504	0.0009705727173224
787.9999999999999990	0.5327016106232595	0.0013504809483999	0.0011765209779311
788.9999999999999990	0.5343314655749474	0.0015162632464202	0.0013121883976227
789.9999999999999990	0.5368646659336503	0.0012761233443450	0.0011344289204437
790.9999999999999990	0.5419804244863829	0.0015413007278316	0.0013098756932096
791.9999999999999990	0.5474996430311501	0.0019155820521534	0.0017139019608506
792.9999999999999990	0.5537948766741081	0.0013519708104694	0.0011800982134584
793.9999999999999990	0.5604930500041563	0.0018213837975845	0.0015396856772221
794.9999999999999990	0.5673638520448059	0.0014235725406427	0.0012184320982843
795.9999999999999990	0.5733234643125259	0.0019311121711820	0.0016540668893075
796.9999999999999990	0.5785055895932112	0.0017519546181007	0.0015445697555725
797.9999999999999990	0.5821720891504043	0.0024665087983104	0.0022167496806311
798.9999999999999990	0.5851218034157190	0.0025517924179033	0.0023328094841993
799.9999999999999990	0.5867979740928415	0.0018985282636334	0.0017259820500325
800.9999999999999990	0.5847756513461686	0.0017851192878957	0.0016309843700794
